time,S1-D1,S1-D8,S1-D9,S1-D15,S2-D1,S2-D2,S2-D3,S2-D9,S3-D1,S3-D2,S3-D16,S4-D2,S4-D3,S4-D5,S5-D3,S5-D4,S5-D5,S6-D2,S6-D5,S6-D17,S7-D6,S7-D7,S8-D6,S8-D7,S8-D18,S9-D3,S9-D4,S9-D9,S9-D11,S9-D19,S10-D8,S10-D9,S10-D10,S10-D11,S11-D8,S11-D10,S11-D20,S12-D10,S12-D11,S12-D12,S13-D4,S13-D11,S13-D12,S14-D10,S14-D12,S14-D21,S15-D13,S15-D14,S16-D13,S16-D14,S16-D22,SART_Target,SART_NonTarget,SART_Probe,t_rel_s,eye_n,xp,yp,ps,xpl_i,xpr_i,ypl_i,ypr_i,psl_i,psr_i,blink_prop
1865.3184,7.44479569904497e-08,-9.6239495745668e-08,-2.1791538755333e-08,4.07433534833665e-07,-2.76292666715765e-08,-2.76292666716211e-08,1.0390997365217e-10,-9.34525310735241e-08,-9.33486210999908e-08,-1.34577292915245e-07,1.14462862804184e-07,-1.34577292915779e-07,1.49508593274299e-07,-1.26747614713323e-08,1.36833831802825e-07,1.80007317492517e-07,-9.23522390437927e-08,8.76550784484259e-08,-1.85788252929386e-07,5.57383572349869e-08,-1.85788252929389e-07,8.71069071272288e-09,-1.09011037063754e-07,-1.00300346351042e-07,3.73820701858314e-08,1.96421856899479e-08,1.96421856898493e-08,4.87148882040006e-08,-4.87148882039995e-08,-1.35739676107838e-07,-1.55822378971765e-07,-9.48380190622577e-08,-2.50660398033853e-07,-1.06998574916641e-07,-9.57995159184149e-08,-2.02798090834556e-07,2.63951978898612e-08,-6.08101552018693e-08,-6.08101552016518e-08,5.67467792106024e-08,,1.20411202396552e-08,9.86689953813789e-08,1.18239811305454e-07,2.16908806686842e-07,-7.37011098644284e-08,1.55784504969583e-08,1.55784504968503e-08,1.1646333537722e-07,-1.16463335377451e-07,-4.72234421966615e-08,0,1,0,0,103,898.781553398058,532.188834951456,1546.15048543689,906.902912621359,890.660194174757,519.147572815534,545.230097087379,1854.55339805825,1237.74757281553,0
1865.4208,7.26288805489059e-08,-9.84075873247586e-08,-2.57787067759637e-08,4.17926644396345e-07,-2.47629728736012e-08,-2.47629728736436e-08,4.5233169482744e-09,-8.88830694096372e-08,-8.43597524614751e-08,-1.52354895907075e-07,1.24347802767622e-07,-1.5235489590759e-07,1.53391710573354e-07,-1.47236472440134e-08,1.38668063329199e-07,1.83536950833061e-07,-9.00689318044714e-08,9.34680190282901e-08,-1.80837158127476e-07,5.44725066773042e-08,-1.80837158127479e-07,-2.95388922122651e-09,-1.06858363104887e-07,-1.09812252326129e-07,2.70485233824421e-08,2.80673739491377e-08,2.80673739490361e-08,4.86002334031181e-08,-4.86002334031164e-08,-1.37006486021004e-07,-1.86737865855969e-07,-8.52536759955009e-08,-2.71991541851304e-07,-8.81254866209576e-08,-9.04547190415603e-08,-1.78580205662027e-07,1.61782102408561e-08,-6.25532861013715e-08,-6.2553286101151e-08,4.33713592953614e-08,,2.73763754829665e-09,1.06559821972246e-07,1.2376255818991e-07,2.30322380162167e-07,-7.57794997085036e-08,1.23357733881909e-08,1.23357733880835e-08,1.15740316843098e-07,-1.15740316843328e-07,-5.81684583174204e-08,0,1,0,0.102399999999989,102,934.999239794278,566.660191256831,1555.81353262617,914.928479588557,955.07,505.565284474446,627.755098039216,1864.8368691739,1246.79019607843,0.392156862745098
1865.5232,7.00576336162629e-08,-1.00331303522878e-07,-3.02736699067212e-08,4.27710774541025e-07,-2.22313258237797e-08,-2.22313258238196e-08,9.29347764738766e-09,-8.40365031021191e-08,-7.47430254548365e-08,-1.69005874883141e-07,1.33173819338447e-07,-1.69005874883635e-07,1.5648695450987e-07,-1.70133961951689e-08,1.3947355831456e-07,1.8493328864447e-07,-8.81956211964564e-08,9.67376674477133e-08,-1.75184744252189e-07,5.3065480402147e-08,-1.75184744252193e-07,-1.44668943028715e-08,-1.04125328755572e-07,-1.18592223058465e-07,1.88658115169249e-08,3.53148518775717e-08,3.53148518774672e-08,4.86484204410145e-08,-4.8648420441011e-08,-1.36217173528894e-07,-2.19320686667046e-07,-7.4384539688771e-08,-2.93705226355653e-07,-6.90798483031128e-08,-8.53474767641754e-08,-1.54427325066805e-07,5.63496577959388e-09,-6.41243433749868e-08,-6.41243433747641e-08,3.13451982455408e-08,,-4.8556199948466e-09,1.14057447211463e-07,1.28836674016024e-07,2.42894121227499e-07,-7.75722404210464e-08,9.21957169353979e-09,9.219571693432e-09,1.14371842717291e-07,-1.14371842717516e-07,-6.9047994942205e-08,0,1,0,0.204799999999977,103,961.544684863919,535.548645551488,1556.93465701098,949.889272640458,973.200097087379,490.240203724336,580.857087378641,1864.38484800255,1249.48446601942,0.466019417475728
1865.6256,6.71378316881174e-08,-1.02272872185238e-07,-3.51350404972212e-08,4.36081689320719e-07,-2.03069725357814e-08,-2.03069725358184e-08,1.44870598164903e-08,-7.92382475325281e-08,-6.47511877161355e-08,-1.83112725043465e-07,1.40837353208529e-07,-1.8311272504394e-07,1.58758274910301e-07,-1.97574055354203e-08,1.39000869374739e-07,1.84842166184701e-07,-8.72356843161557e-08,9.76064818682441e-08,-1.68621399030792e-07,5.13557447044167e-08,-1.68621399030798e-07,-2.4896466699208e-08,-1.01051377794638e-07,-1.25947844493874e-07,1.26558984466705e-08,4.10839347693892e-08,4.10839347692821e-08,4.92488911739015e-08,-4.92488911738954e-08,-1.33643313938938e-07,-2.51938325806245e-07,-6.35700512171314e-08,-3.15508377023216e-07,-5.05069003708883e-08,-8.07620345865909e-08,-1.31268934957003e-07,-5.02234138597822e-09,-6.5495094870793e-08,-6.54950948705693e-08,2.08235574823873e-08,,-1.07754550149222e-08,1.21064931264714e-07,1.33314005595366e-07,2.54378936860094e-07,-7.8723994712422e-08,6.40930208961348e-09,6.40930208950429e-09,1.12482908167743e-07,-1.12482908167961e-07,-7.9360334421931e-08,0,0,0,0.307199999999966,102,947.674019607843,528.149019607843,1559.78431372549,957.824509803922,937.523529411765,519.91862745098,536.379411764706,1887.53921568627,1232.02941176471,0
1865.728,6.41273359355122e-08,-1.04529356732005e-07,-4.04020207965875e-08,4.4233277199558e-07,-1.92957302244644e-08,-1.92957302244982e-08,2.00642226608904e-08,-7.48277154979089e-08,-5.47634928371084e-08,-1.93936818605587e-07,1.47308509216712e-07,-1.93936818606043e-07,1.60163886264196e-07,-2.31737292115628e-08,1.36990157052491e-07,1.84158141576193e-07,-8.7688545596415e-08,9.64695959794774e-08,-1.60732771670892e-07,4.90634282349259e-08,-1.607327716709e-07,-3.32818989484728e-08,-9.78215628520451e-08,-1.31103461800554e-07,8.18469742865343e-09,4.50928297874813e-08,4.50928297873717e-08,5.08191304436104e-08,-5.08191304436013e-08,-1.29532481870838e-07,-2.82784131496182e-07,-5.42766383937018e-08,-3.37060769889725e-07,-3.29258042517137e-08,-7.69818283795736e-08,-1.09907632630817e-07,-1.55550484855006e-08,-6.66463069784723e-08,-6.66463069782491e-08,1.20383220788138e-08,,-1.49881403436341e-08,1.27478882764659e-07,1.37037805808783e-07,2.64516688573458e-07,-7.88865514535596e-08,4.07367276558543e-09,4.0736727654737e-09,1.1018873922178e-07,-1.10188739221988e-07,-8.85634460472399e-08,0,0,0,0.409599999999955,102,949.329901960784,530.325490196079,1555.63725490196,960.101960784314,938.557843137255,525.195098039216,535.455882352941,1891.46078431373,1219.8137254902,0
1865.8304,6.11421012079516e-08,-1.07387581716797e-07,-4.62454805089311e-08,4.45783273799739e-07,-1.94910946408287e-08,-1.94910946408593e-08,2.58625655852312e-08,-7.11365879672305e-08,-4.52740223820813e-08,-2.01517128405977e-07,1.52607298184128e-07,-2.01517128406416e-07,1.60646134614715e-07,-2.74827739449769e-08,1.33163360669596e-07,1.83926960643094e-07,-9.00157360493295e-08,9.39112245934643e-08,-1.50960887462289e-07,4.58760738692422e-08,-1.50960887462301e-07,-3.86872950927692e-08,-9.45404558534254e-08,-1.33227750946239e-07,5.18284298698556e-09,4.71080678009311e-08,4.71080678008191e-08,5.37629528533823e-08,-5.37629528533698e-08,-1.24046488385118e-07,-3.09959509749378e-07,-4.79924098252441e-08,-3.57951919574464e-07,-1.67514167022807e-08,-7.42735670564598e-08,-9.10249837582746e-08,-2.56939579292407e-08,-6.75727383874279e-08,-6.7572738387207e-08,5.24707684012561e-09,,-1.74016629763842e-08,1.33165559063344e-07,1.39867704344823e-07,2.73033263408183e-07,-7.77356929735625e-08,2.37236859490189e-09,2.37236859478627e-09,1.07597743422703e-07,-1.07597743422899e-07,-9.61025502539939e-08,0,0,0,0.511999999999944,103,947.162621359223,526.749029126214,1561.42718446602,956.530097087379,937.795145631068,524.641747572816,528.856310679612,1896.03883495146,1226.81553398058,0
1865.9328,5.81761331350786e-08,-1.11073582326183e-07,-5.28974491911807e-08,4.45784305086792e-07,-2.11202535801485e-08,-2.11202535801757e-08,3.16072335108651e-08,-6.84620872848661e-08,-3.68548537740753e-08,-2.06615028016166e-07,1.56778268853945e-07,-2.06615028016591e-07,1.60123982694387e-07,-3.28915018367302e-08,1.27232480857514e-07,1.85203738919138e-07,-9.45917837971172e-08,9.06119551217221e-08,-1.38690572659832e-07,4.15624241914463e-08,-1.38690572659849e-07,-4.02575701989311e-08,-9.12112077378785e-08,-1.31468777936863e-07,3.35379659723662e-09,4.69791290747968e-08,4.69791290746826e-08,5.84216901186041e-08,-5.84216901185875e-08,-1.17202426561046e-07,-3.31551862695176e-07,-4.61155075435428e-08,-3.77667370238561e-07,-2.34354360775887e-09,-7.28619776708926e-08,-7.52055212781894e-08,-3.51458143094783e-08,-6.82796670507051e-08,-6.82796670504889e-08,6.49270523803714e-10,,-1.79067003214741e-08,1.37929983136893e-07,1.41715512252352e-07,2.79645495389263e-07,-7.49946830599511e-08,1.4585895561897e-09,1.45858955606882e-09,1.0481013641666e-07,-1.04810136416842e-07,-1.01442760517147e-07,0,0,0,0.614399999999932,102,950.133823529412,524.80931372549,1581.92647058824,961.68137254902,938.586274509804,521.122549019608,528.496078431373,1916.32352941176,1247.52941176471,0
1866.0352,5.51203514793175e-08,-1.15714836945072e-07,-6.05944854658205e-08,4.41710450800059e-07,-2.43064425677885e-08,-2.43064425678123e-08,3.69460235216244e-08,-6.70440172034552e-08,-3.00979936818969e-08,-2.10487884604996e-07,1.59865328174009e-07,-2.10487884605408e-07,1.5849159385687e-07,-3.95662500181391e-08,1.18925343838587e-07,1.88900312579481e-07,-1.01652086642488e-07,8.72482259366965e-08,-1.2335071025751e-07,3.6057329715043e-08,-1.23350710257534e-07,-3.72740107702437e-08,-8.77289747252334e-08,-1.2500298549554e-07,2.36858186247073e-09,4.46625527527117e-08,4.46625527525958e-08,6.50301939158611e-08,-6.50301939158402e-08,-1.08823521979321e-07,-3.45753976349073e-07,-4.98223169931586e-08,-3.95576293342073e-07,9.93736180933211e-09,-7.29042394405024e-08,-6.29668776307114e-08,-4.36142931825238e-08,-6.87708492473201e-08,-6.87708492471105e-08,-1.70497400769337e-09,,-1.64417747226882e-08,1.41500921986228e-07,1.42574903959996e-07,2.84075825946244e-07,-7.04557195991563e-08,1.47495157852363e-09,1.47495157839597e-09,1.01905810405168e-07,-1.01905810405334e-07,-1.04100038282954e-07,0,0,0,0.716799999999921,103,950.964563106796,527.794174757282,1592.6213592233,964.065048543689,937.864077669903,523.882524271845,531.705825242718,1930.09708737864,1255.14563106796,0
1866.1376,5.17789005975347e-08,-1.21326485907798e-07,-6.95475853103164e-08,4.32956995247226e-07,-2.90600233635284e-08,-2.90600233635487e-08,4.15070305688673e-08,-6.70518582706414e-08,-2.55448277018319e-08,-2.14544032457835e-07,1.61890334383194e-07,-2.14544032458235e-07,1.55630630493215e-07,-4.76021571520392e-08,1.08028473341032e-07,1.95656045749245e-07,-1.11254844734741e-07,8.44012010142108e-08,-1.04523859751344e-07,2.94844872054777e-08,-1.04523859751375e-07,-2.92052836552347e-08,-8.39006238714496e-08,-1.13105907526757e-07,1.84979971430023e-09,4.02261097068673e-08,4.02261097067498e-08,7.36860639956197e-08,-7.36860639955947e-08,-9.85148262298829e-08,-3.51033072908863e-07,-5.99201713136033e-08,-4.10953244222306e-07,1.96922700498137e-08,-7.44738965391849e-08,-5.47816264889147e-08,-5.08312091762185e-08,-6.903544160321e-08,-6.90354416030093e-08,-1.97897137209278e-09,,-1.305950535298e-08,1.43546052602527e-07,1.42530712188105e-07,2.86076764790655e-07,-6.39890141056619e-08,2.53960955399547e-09,2.53960955385974e-09,9.89275386616237e-08,-9.89275386617718e-08,-1.03666303062653e-07,0,0,0,0.81919999999991,102,950.055882352941,526.80931372549,1593.87745098039,964.859803921569,935.251960784314,519.989215686275,533.629411764706,1935.69607843137,1252.05882352941,0
1866.24,4.78959259649116e-08,-1.27818626329496e-07,-7.99227003646244e-08,4.18962402839709e-07,-3.5291280605171e-08,-3.52912806051881e-08,4.49706244833332e-08,-6.85815769518981e-08,-2.36109524686139e-08,-2.19964079722197e-07,1.62838416379481e-07,-2.19964079722586e-07,1.51441255395075e-07,-5.69962471743111e-08,9.44450082206189e-08,2.05749763104482e-07,-1.23267011029906e-07,8.24827520742868e-08,-8.20578787067605e-08,2.21243863935877e-08,-8.20578787068019e-08,-1.57536910327421e-08,-7.94940885286516e-08,-9.52477795614757e-08,1.3496480429183e-09,3.38354535792154e-08,3.38354535790968e-08,8.43341044885771e-08,-8.43341044885474e-08,-8.5684076205189e-08,-3.46311743763461e-07,-7.67090505633622e-08,-4.23020794326659e-07,2.64811353960945e-08,-7.75577304686578e-08,-5.10765950721095e-08,-5.65875618521276e-08,-6.90426859552437e-08,-6.90426859550538e-08,-5.62780657792207e-10,,-7.9667904262721e-09,1.43715807035138e-07,1.41744923568925e-07,2.85460730604089e-07,-5.55373862431654e-08,4.72587465027253e-09,4.72587465012708e-09,9.58729041930408e-08,-9.58729041931686e-08,-9.9829720361332e-08,0,0,0,0.921599999999899,102,936.725,542.503431372549,1584.79901960784,953.525490196078,919.924509803922,538.908823529412,546.098039215686,1924.47058823529,1245.12745098039,0
1866.3424,4.3202836821996e-08,-1.35013879050493e-07,-9.1811042228522e-08,3.99261927340795e-07,-4.28293812769736e-08,-4.28293812769873e-08,4.7143210980095e-08,-7.16558654494122e-08,-2.45126544693565e-08,-2.27362079897745e-07,1.62653040754263e-07,-2.27362079898122e-07,1.45888447897249e-07,-6.76264999911194e-08,7.82619479059837e-08,2.19052609818212e-07,-1.37371383579096e-07,8.16812262388322e-08,-5.61686206974685e-08,1.43582458229243e-08,-5.61686206975218e-08,3.10010553758926e-09,-7.43065454699038e-08,-7.12064399324066e-08,3.30441012420112e-10,2.57346289069158e-08,2.57346289067963e-08,9.67632795683497e-08,-9.67632795683153e-08,-6.96190959119038e-08,-3.31113939391252e-07,-9.98786086275017e-08,-4.30992548018586e-07,2.98623493311774e-08,-8.20616339815267e-08,-5.21992846498989e-08,-6.07570244949674e-08,-6.87474363089273e-08,-6.87474363087504e-08,1.96408879740153e-09,,-1.52669706800413e-09,1.41703928388311e-07,1.40427959689185e-07,2.82131888077527e-07,-4.51033938401405e-08,8.04218145759581e-09,8.04218145743912e-09,9.2703784957868e-08,-9.27037849579732e-08,-9.23947463429049e-08,0,0,0,1.02399999999989,103,936.212621359223,546.68786407767,1561.17961165049,952.01359223301,920.411650485437,544.400970873786,548.974757281553,1895.4854368932,1226.87378640777,0
1866.4448,3.74813497114996e-08,-1.42666147758711e-07,-1.05184798047221e-07,3.73565608170136e-07,-5.14360138595797e-08,-5.14360138595904e-08,4.80178081069229e-08,-7.62206126039315e-08,-2.82028044970372e-08,-2.36542523764931e-07,1.61245080555771e-07,-2.36542523765294e-07,1.39051409612605e-07,-7.92366343307038e-08,5.98147752817539e-08,2.35017492141806e-07,-1.53084211722252e-07,8.19332804192753e-08,-2.75151510919002e-08,6.61425924815649e-09,-2.75151510919668e-08,2.70546705736786e-08,-6.82340398376248e-08,-4.11793692640492e-08,-1.83882799899932e-09,1.62341179575049e-08,1.62341179573849e-08,1.10611128575657e-07,-1.10611128575619e-07,-4.96162898015099e-08,-3.05656797289169e-07,-1.28457128212334e-07,-4.34113925501332e-07,2.94704047130237e-08,-8.78179629314368e-08,-5.83475582179669e-08,-6.33141289375596e-08,-6.81028149674525e-08,-6.810281496729e-08,4.90237548872727e-09,,5.7701088704173e-09,1.37313609521988e-07,1.38807862421836e-07,2.76121471943862e-07,-3.2739589677321e-08,1.24192406351053e-08,1.24192406349356e-08,8.93707899132213e-08,-8.93707899133017e-08,-8.13077374664086e-08,0,0,0,1.12639999999988,102,936.150980392157,547.81862745098,1537.04901960784,949.811764705882,922.490196078431,544.98137254902,550.655882352941,1864.83333333333,1209.26470588235,0
1866.5472,3.06280104420556e-08,-1.50478203139672e-07,-1.19850192697609e-07,3.41851645360458e-07,-6.08107511838474e-08,-6.08107511838547e-08,4.78082969300568e-08,-8.21355548014677e-08,-3.4327257871427e-08,-2.46393185955519e-07,1.585152908159e-07,-2.46393185955865e-07,1.31159429171745e-07,-9.14297504504398e-08,3.97296787211559e-08,2.52710532054932e-07,-1.69776950735326e-07,8.29335813193334e-08,2.77782324172582e-09,-6.75212191520496e-10,2.77782324164393e-09,5.54548839069329e-08,-6.13276754586536e-08,-5.87279155183542e-09,-5.85195768954661e-09,5.71423347079169e-09,5.71423347067131e-09,1.25372882765889e-07,-1.25372882765846e-07,-2.51433792042461e-08,-2.70896633382719e-07,-1.60825276780527e-07,-4.31721910163071e-07,2.51202883691699e-08,-9.4589173572038e-08,-6.94688852024276e-08,-6.43542216138439e-08,-6.70744724700104e-08,-6.70744724698634e-08,7.51390510365544e-09,,1.33467797169246e-08,1.30523038139786e-07,1.37105940195727e-07,2.67628978335559e-07,-1.85508356530318e-08,1.77085550746248e-08,1.77085550744403e-08,8.58403914076454e-08,-8.58403914076992e-08,-6.66920556612718e-08,1,0,0,1.22879999999986,103,937.13786407767,538.043203883495,1527.21844660194,950.369902912621,923.905825242718,539.990291262136,536.096116504854,1848.8640776699,1205.57281553398,0
1866.6496,2.27098204844413e-08,-1.58122046731752e-07,-1.35412226247285e-07,3.0447074049758e-07,-7.05928483380526e-08,-7.05928483380568e-08,4.69491633751906e-08,-8.91656003641994e-08,-4.22164369890104e-08,-2.54934994636766e-07,1.54378005814718e-07,-2.54934994637091e-07,1.22598984373857e-07,-1.03682408284271e-07,1.8916576089435e-08,2.70899858997088e-07,-1.86706908900767e-07,8.41929500960553e-08,3.31744965971974e-08,-7.11029555855409e-09,3.31744965970992e-08,8.72812155881388e-08,-5.38259518315503e-08,3.34552637564612e-08,-1.23796765293149e-08,-5.36002171559676e-09,-5.36002171571733e-09,1.40420948159102e-07,-1.40420948159056e-07,3.98184393266051e-09,-2.28542527526487e-07,-1.94814298999204e-07,-4.23356826525513e-07,1.69192534775284e-08,-1.02071419923353e-07,-8.51521664453918e-08,-6.41161555621786e-08,-6.56553556273382e-08,-6.56553556272073e-08,9.10175955904436e-09,,2.05827890857596e-08,1.21544700938106e-07,1.35520414904338e-07,2.57065115842501e-07,-2.7098478929859e-09,2.36929731697137e-08,2.36929731695127e-08,8.2113112478119e-08,-8.21131124781445e-08,-4.88893247822713e-08,1,0,0,1.33119999999985,102,938.890196078431,545.830392156863,1534.52941176471,951.470588235294,926.309803921569,553.740196078431,537.920588235294,1851.89215686275,1217.16666666667,0
1866.752,1.40109542002166e-08,-1.65266291637059e-07,-1.51255337436799e-07,2.62252483578252e-07,-8.03672037901448e-08,-8.03672037901457e-08,4.60568669494086e-08,-9.69848892059999e-08,-5.09280222565764e-08,-2.59540424947556e-07,1.4876913263103e-07,-2.59540424947854e-07,1.13881086495101e-07,-1.15395039415075e-07,-1.51395292012825e-09,2.88212014580696e-07,-2.03066784151955e-07,8.51452304284815e-08,6.18728907755742e-08,-1.2359655649131e-08,6.18728907754584e-08,1.2118125197281e-07,-4.61556742318851e-08,7.50255777407845e-08,-2.19169283937741e-08,-1.64284764807207e-08,-1.64284764808415e-08,1.5504795340513e-07,-1.5504795340508e-07,3.74176506352064e-08,-1.81029067368317e-07,-2.2792053325543e-07,-4.08949600623567e-07,5.35742521759824e-09,-1.09910400410489e-07,-1.04552975192468e-07,-6.2996257413264e-08,-6.38846956903917e-08,-6.38846956902772e-08,9.09084783320955e-09,,2.68609843814207e-08,1.10867136473646e-07,1.3421517891216e-07,2.45082315385874e-07,1.45235379037176e-08,3.0107046266248e-08,3.01070462660293e-08,7.82332373522506e-08,-7.82332373522471e-08,-2.84934584759812e-08,1,0,0,1.43359999999984,102,941.421568627451,543.823039215686,1552.00980392157,951.756862745098,931.086274509804,547.567647058824,540.078431372549,1866.48039215686,1237.53921568627,0
1866.8544,5.0698774977019e-09,-1.716067549227e-07,-1.66536877424936e-07,2.16578241002995e-07,-8.96797112344325e-08,-8.96797112344308e-08,4.58547382960521e-08,-1.05201420277335e-07,-5.93466819812495e-08,-2.57310925576833e-07,1.41632341667802e-07,-2.57310925577101e-07,1.05567326980174e-07,-1.25980409625418e-07,-2.04130826454e-08,3.0333791585061e-07,-2.18055792181024e-07,8.5282123669332e-08,8.70321176994523e-08,-1.61931962972091e-08,8.70321176993184e-08,1.55565566355124e-07,-3.88966482574871e-08,1.16668918097482e-07,-3.45951661099448e-08,-2.68532095270438e-08,-2.68532095271649e-08,1.68542484467602e-07,-1.68542484467549e-07,7.41733733575012e-08,-1.31404159189683e-07,-2.5765886209146e-07,-3.89063021280961e-07,-8.65690598565569e-09,-1.17737291551766e-07,-1.26394197537012e-07,-6.153516148978e-08,-6.18707405283995e-08,-6.18707405283014e-08,7.10907576241348e-09,,3.16284730881106e-08,9.9260383827044e-08,1.33309608443859e-07,2.32569992270983e-07,3.27914158512506e-08,3.66609660317448e-08,3.66609660315076e-08,7.42973507186676e-08,-7.4297350718635e-08,-6.35930063813396e-09,0,0,0,1.53599999999983,103,945.723300970874,538.666990291262,1570.34951456311,956.388349514563,935.058252427184,542.840776699029,534.493203883495,1880.20388349515,1260.49514563107,0
1866.9568,-3.31096205695234e-09,-1.76889428647234e-07,-1.80200390704106e-07,1.69358804926848e-07,-9.8064307791878e-08,-9.80643077918739e-08,4.70742203728587e-08,-1.13397966613103e-07,-6.63237462401917e-08,-2.45544960593595e-07,1.3289505518103e-07,-2.45544960593827e-07,9.81758903836068e-08,-1.34961523952322e-07,-3.67856335688745e-08,3.15230729175192e-07,-2.30960661444575e-07,8.42700677303686e-08,1.07036195386705e-07,-1.85040269492754e-08,1.07036195386552e-07,1.88765772797775e-07,-3.27120423955384e-08,1.56053730402068e-07,-5.00491690781659e-08,-3.59809601049613e-08,-3.59809601050829e-08,1.80287232212087e-07,-1.8028723221203e-07,1.12603751895686e-07,-8.30798771716313e-08,-2.82003446180414e-07,-3.65083323351864e-07,-2.38436633364092e-08,-1.25215843834819e-07,-1.49059507170835e-07,-6.03660908263395e-08,-5.98046331257975e-08,-5.9804633125715e-08,3.0506818298208e-09,,3.44652169244867e-08,8.77255236671383e-08,1.32866512955068e-07,2.20592036622301e-07,5.16404833387272e-08,4.30586672942578e-08,4.30586672940018e-08,7.04577255899371e-08,-7.04577255898766e-08,1.64303681109656e-08,0,0,0,1.63839999999982,102,945.354901960784,544.469117647059,1570.47058823529,954.513725490196,936.196078431373,545.296078431373,543.642156862745,1883.67647058824,1257.26470588235,0
1867.0592,-1.01139429950274e-08,-1.80920744582282e-07,-1.91034687577211e-07,1.22870742577875e-07,-1.05083318154397e-07,-1.05083318154391e-07,5.03516033082453e-08,-1.21176600298071e-07,-7.0824996989753e-08,-2.22185131508295e-07,1.22459367766558e-07,-2.22185131508489e-07,9.21085635275233e-08,-1.42035953520386e-07,-4.99273899930246e-08,3.23231235714369e-07,-2.41227438850525e-07,8.20037968636002e-08,1.20716381496211e-07,-1.93178754263885e-08,1.2071638149604e-07,2.19210354919881e-07,-2.82561015771835e-08,1.90954253342516e-07,-6.74299190914114e-08,-4.32412890736478e-08,-4.324128907377e-08,1.89848307383515e-07,-1.89848307383454e-07,1.5056917455605e-07,-3.94387454974164e-08,-2.99761537017705e-07,-3.39200282514941e-07,-3.86827255867993e-08,-1.32081913787218e-07,-1.70764639373642e-07,-6.01289935211439e-08,-5.79477493659869e-08,-5.79477493659187e-08,-2.90615754224425e-09,,3.5138640424844e-08,7.73792561700194e-08,1.32880177478351e-07,2.1025943364848e-07,7.05399456025628e-08,4.90066329316656e-08,4.90066329313917e-08,6.69048975320574e-08,-6.69048975319717e-08,3.86523742150612e-08,0,0,0,1.74079999999981,103,941.797572815534,552.456310679612,1560.60679611651,952.010679611651,931.584466019418,551.864077669903,553.04854368932,1877.64077669903,1243.57281553398,0
1867.1616,-1.42319294645526e-08,-1.83571388600171e-07,-1.9780331806461e-07,7.94632146021338e-08,-1.10379774376921e-07,-1.10379774376914e-07,5.61324136519023e-08,-1.28195871461596e-07,-7.20634578096017e-08,-1.86164135021683e-07,1.10236191882384e-07,-1.86164135021838e-07,8.76240330098442e-08,-1.47086965726011e-07,-5.9462932716332e-08,3.27103382448717e-07,-2.48512399169632e-07,7.85909832788463e-08,1.27475639958273e-07,-1.8794979097246e-08,1.27475639958086e-07,2.4556938936036e-07,-2.6077225775691e-08,2.19492163584476e-07,-8.55741828126788e-08,-4.82464897890235e-08,-4.82464897891466e-08,1.97025659865661e-07,-1.97025659865597e-07,1.85734374252878e-07,-3.35316985600513e-09,-3.10721868066696e-07,-3.14075037922519e-07,-5.16050486570448e-08,-1.38163409502243e-07,-1.89768458158931e-07,-6.13699092515548e-08,-5.65854768723542e-08,-5.65854768722994e-08,-1.03345588976242e-08,,3.36318299806503e-08,6.92846306318324e-08,1.33271544130738e-07,2.02556174762695e-07,8.89161789408453e-08,5.42217046209776e-08,5.42217046206876e-08,6.38229038607176e-08,-6.38229038606101e-08,5.90856735618094e-08,0,0,0,1.8431999999998,102,943.34362745098,553.054411764706,1571.07843137255,956.866666666667,929.820588235294,553.051960784314,553.056862745098,1896.1568627451,1246,0
1867.264,-1.46530737019517e-08,-1.8477950005179e-07,-1.99432573753614e-07,4.12096785584787e-08,-1.13732710054363e-07,-1.13732710054356e-07,6.45912128501635e-08,-1.34195701079047e-07,-6.96044882287741e-08,-1.37620585594846e-07,9.62318839655342e-08,-1.37620585594964e-07,8.4843992107649e-08,-1.50156996692325e-07,-6.53130045848433e-08,3.27009589578155e-07,-2.52710393361513e-07,7.42991962164067e-08,1.2732130824116e-07,-1.72275360986673e-08,1.27321308240957e-07,2.66863028002222e-07,-2.6535441360715e-08,2.40327586641304e-07,-1.03247903803326e-07,-5.08600747012929e-08,-5.08600747014171e-08,2.01857097693931e-07,-2.01857097693863e-07,2.15921990636001e-07,2.32714328004577e-08,-3.1553928503748e-07,-2.9226785223684e-07,-6.11932867350544e-08,-1.43379883625057e-07,-2.04573170359774e-07,-6.44538067028956e-08,-5.59592933582835e-08,-5.59592933582405e-08,-1.8626649065956e-08,,3.01481903757991e-08,6.42654598986179e-08,1.3389483112961e-07,1.98160291028367e-07,1.06199742950428e-07,5.84462957633165e-08,5.84462957630126e-08,6.13319201953203e-08,-6.13319201951959e-08,7.66773787472843e-08,0,0,0,1.94559999999979,103,937.871359223301,549.479611650486,1589.93203883495,951.965048543689,923.777669902913,550.288349514563,548.670873786408,1915.42718446602,1264.43689320388,0
1867.3664,-1.06497019983617e-08,-1.84548011167068e-07,-1.9519771316529e-07,9.61376011379399e-09,-1.15098140721294e-07,-1.15098140721288e-07,7.55855975719593e-08,-1.39008622995603e-07,-6.34230254235193e-08,-7.79544054529325e-08,8.06551727501327e-08,-7.79544054530174e-08,8.37645349342138e-08,-1.51408067459698e-07,-6.7643532525654e-08,3.23448371512054e-07,-2.53956883243051e-07,6.94914882687706e-08,1.20836459302069e-07,-1.50280692470955e-08,1.20836459301852e-07,2.82547423711532e-07,-2.97514072816847e-08,2.52796016429638e-07,-1.19353994171906e-07,-5.12164267932771e-08,-5.12164267934026e-08,2.0458526610576e-07,-2.04585266105688e-07,2.39430022453845e-07,3.9791115857865e-08,-3.15434673981011e-07,-2.75643558122962e-07,-6.6342884764587e-08,-1.4772730919745e-07,-2.14070193961718e-07,-6.95162194422908e-08,-5.62036496193419e-08,-5.62036496193093e-08,-2.70724087275889e-08,,2.50891972271408e-08,6.27625585306323e-08,1.34551707396004e-07,1.9731426592679e-07,1.2187281716109e-07,6.14659807965892e-08,6.14659807962745e-08,5.94447369938968e-08,-5.9444736993761e-08,9.06738575957998e-08,0,0,0,2.048,102,928.870588235294,551.439215686275,1608.48039215686,942.978431372549,914.762745098039,555.002941176471,547.875490196079,1924.21568627451,1292.74509803922,0
1867.4688,-1.90493921014762e-09,-1.82926168455962e-07,-1.84831107665959e-07,-1.45399984192052e-08,-1.14616762356208e-07,-1.14616762356203e-07,8.8668015769377e-08,-1.42557425506065e-07,-5.38894097365515e-08,-9.678282075889e-09,6.39845948507835e-08,-9.67828207594633e-09,8.42646553728232e-08,-1.51078234236678e-07,-6.68135788640268e-08,3.17147748208433e-07,-2.52593176045466e-07,6.45545721627385e-08,1.09093357575825e-07,-1.2700796654031e-08,1.09093357575597e-07,2.92559157396826e-07,-3.55970691692312e-08,2.56962088227383e-07,-1.33042645824286e-07,-4.96878674317444e-08,-4.96878674318713e-08,2.05598373623196e-07,-2.05598373623122e-07,2.55241220589935e-07,4.68545429109171e-08,-3.11825421813427e-07,-2.64970878902322e-07,-6.63618294840882e-08,-1.51255618169391e-07,-2.17617447653177e-07,-7.64629484320009e-08,-5.73138051091224e-08,-5.73138051090989e-08,-3.49432012510164e-08,,1.89952927569198e-08,6.47817471802632e-08,1.35007289026389e-07,1.99789036206817e-07,1.35505552933596e-07,6.31178976915923e-08,6.31178976912698e-08,5.80570696666242e-08,-5.80570696664825e-08,1.00673151164474e-07,0,0,0,2.15039999999999,102,924.263235294118,553.199509803922,1621.06862745098,940.087254901961,908.439215686274,557.736274509804,548.662745098039,1923.45098039216,1318.6862745098,0
1867.5712,1.14614751815766e-08,-1.79975289444118e-07,-1.68513814262385e-07,-3.1169900335655e-08,-1.12580198166378e-07,-1.12580198166375e-07,1.03157673788476e-07,-1.44841846701677e-07,-4.16841729130564e-08,6.39284092276203e-08,4.69548466746028e-08,6.39284092275842e-08,8.61222724760967e-08,-1.49433268594496e-07,-6.3310996118573e-08,3.08915219776526e-07,-2.49093699243718e-07,5.98215205325828e-08,9.34993368705069e-08,-1.0792621086509e-08,9.34993368702698e-08,2.97283636620344e-07,-4.37256667404724e-08,2.53557969879659e-07,-1.43731005553773e-07,-4.68102482418675e-08,-4.68102482419957e-08,2.05356398257728e-07,-2.0535639825765e-07,2.63087515583102e-07,4.61818903089119e-08,-3.05999244944727e-07,-2.59817354635622e-07,-6.1013700594761e-08,-1.54045466393958e-07,-2.1505916698843e-07,-8.5007619979472e-08,-5.9153971444664e-08,-5.91539714446482e-08,-4.15749740202419e-08,,1.24602828229654e-08,6.99424225778736e-08,1.35008826130832e-07,2.0495124870888e-07,1.46777634411783e-07,6.3288737651127e-08,6.32887376507998e-08,5.69742884133083e-08,-5.69742884131656e-08,1.06600992940311e-07,0,0,0,2.25279999999998,103,927.387378640777,557.674757281553,1644.70873786408,942.009708737864,912.765048543689,566.352427184466,548.997087378641,1936.95145631068,1352.46601941748,0
1867.6736,2.89601869287465e-08,-1.75733898006123e-07,-1.46773711077214e-07,-4.07652777424692e-08,-1.09367209730977e-07,-1.09367209730976e-07,1.18246940656401e-07,-1.45920393375815e-07,-2.76734527192649e-08,1.39267449400404e-07,3.04644629644397e-08,1.39267449400382e-07,8.90465617733647e-08,-1.4672013415657e-07,-5.76735723833803e-08,2.99480919717072e-07,-2.4397739266449e-07,5.55035270523601e-08,7.55922764199997e-08,-9.82692548728745e-09,7.55922764197564e-08,2.97449071627889e-07,-5.3628887691543e-08,2.43820183936136e-07,-1.51075175780175e-07,-4.31924538054059e-08,-4.31924538055354e-08,2.04319793783415e-07,-2.04319793783334e-07,2.63380016841685e-07,4.01937289916684e-08,-2.98928848919916e-07,-2.58735119928048e-07,-5.0514043008053e-08,-1.56188467758927e-07,-2.06702510766702e-07,-9.47262239229484e-08,-6.14955476083038e-08,-6.14955476082948e-08,-4.64369061610498e-08,,6.05216464394344e-09,7.75913964809638e-08,1.34312034841961e-07,2.11903431323108e-07,1.55490297268319e-07,6.19131541731486e-08,6.19131541728192e-08,5.59622284171691e-08,-5.59622284170294e-08,1.0864501412601e-07,0,0,0,2.35519999999997,102,929.832843137255,565.738725490196,1706.18137254902,944.151960784314,915.513725490196,582.760784313726,548.716666666667,2019.05882352941,1393.30392156863,0
1867.776,4.98508562870578e-08,-1.70201043009722e-07,-1.20350186722497e-07,-4.42140901384222e-08,-1.05374722516496e-07,-1.05374722516497e-07,1.33109214293901e-07,-1.4589280026704e-07,-1.27835859729882e-08,2.12840024298812e-07,1.54400301197308e-08,2.12840024298796e-07,9.27231810164247e-08,-1.43134542047785e-07,-5.04113610315364e-08,2.89386419426616e-07,-2.37734580828539e-07,5.16518385978586e-08,5.68349454190159e-08,-1.02303336451781e-08,5.68349454187689e-08,2.93985894244869e-07,-6.47056822929649e-08,2.29280211951699e-07,-1.54933554866295e-07,-3.94355580129189e-08,-3.94355580130495e-08,2.02896792333561e-07,-2.02896792333477e-07,2.57051915612364e-07,3.15957451022047e-08,-2.91260642368031e-07,-2.59664897265617e-07,-3.54803635745504e-08,-1.57772492294972e-07,-1.93252855869251e-07,-1.05111303610385e-07,-6.40654735470583e-08,-6.4065473547055e-08,-4.9171656135082e-08,,2.65271783646216e-10,8.69304029670163e-08,1.32715450566706e-07,2.19645853533909e-07,1.61574822275275e-07,5.89816541316405e-08,5.8981654131311e-08,5.48025697191665e-08,-5.48025697190324e-08,1.07180331779322e-07,0,1,0,2.45759999999996,102,929.00637254902,579.432843137255,1755.55392156863,941.375490196078,916.637254901961,585.298039215686,573.567647058824,2056.37254901961,1454.73529411765,0
1867.8784,7.32644193339042e-08,-1.63344634649103e-07,-9.00802153150298e-08,-4.2644722695323e-08,-1.0096512282231e-07,-1.00965122822314e-07,1.46985976367187e-07,-1.44884231547241e-07,2.10174482009537e-09,2.815548179714e-07,2.70186092704099e-09,2.81554817971383e-07,9.68580484521049e-08,-1.38808167140367e-07,-4.1950118688439e-08,2.78953248877533e-07,-2.30786369632636e-07,4.81668792446819e-08,3.84621651810621e-08,-1.22707511267889e-08,3.84621651808134e-08,2.87894053170204e-07,-7.63277984035717e-08,2.11566254766432e-07,-1.55337549975301e-07,-3.60732862453811e-08,-3.60732862455126e-08,2.0141609117979e-07,-2.01416091179703e-07,2.45369015861653e-07,2.2991372696777e-08,-2.83412401911611e-07,-2.60421029214616e-07,-1.68312637196451e-08,-1.58870402449316e-07,-1.75701666168693e-07,-1.15620746605201e-07,-6.65866812597442e-08,-6.65866812597458e-08,-4.9606096473546e-08,,-4.49941998284221e-09,9.71208519940622e-08,1.30095746698526e-07,2.27216598692778e-07,1.6509452707884e-07,5.45552660178208e-08,5.45552660174927e-08,5.33327232432228e-08,-5.33327232430956e-08,1.02701119781145e-07,0,1,0,2.55999999999995,103,931.647572815534,579.738834951456,1791.57281553398,939.828155339806,923.466990291262,578.346601941748,581.131067961165,2078.73786407767,1504.40776699029,0
1867.9808,9.82989133928395e-08,-1.55126938184912e-07,-5.68280247919025e-08,-3.72968173181499e-08,-9.64366546099336e-08,-9.64366546099393e-08,1.59244408118499e-07,-1.43031005341642e-07,1.62134027770023e-08,3.42914082728978e-07,-7.13494554464111e-09,3.42914082728954e-07,1.01203158131737e-07,-1.33814575668671e-07,-3.26114175371109e-08,2.68330192075265e-07,-2.23475280450725e-07,4.48549116243292e-08,2.14084898005112e-08,-1.60245827932486e-08,2.14084898002624e-08,2.8014408184425e-07,-8.78930723871519e-08,1.92251009456905e-07,-1.52462869338413e-07,-3.35315147514117e-08,-3.35315147515439e-08,2.00121552362562e-07,-2.00121552362473e-07,2.29746759914682e-07,1.65719801284357e-08,-2.75675285310237e-07,-2.59103305181574e-07,4.35509021716586e-09,-1.59530980078683e-07,-1.55175889861249e-07,-1.25723736642619e-07,-6.8803953262818e-08,-6.88039532628238e-08,-4.77442892310361e-08,,-7.9467580110672e-09,1.073580755217e-07,1.26433053708326e-07,2.33791129230215e-07,1.66232742590513e-07,4.87757586506279e-08,4.8775758650302e-08,5.14597314409231e-08,-5.14597314408026e-08,9.57587862989971e-08,0,1,0,2.66239999999993,102,933.641666666667,580.837745098039,1794.33333333333,936.197058823529,931.086274509804,575.351960784314,586.323529411765,2068.50980392157,1520.1568627451,0
1868.0832,1.24087178574803e-07,-1.45534668779669e-07,-2.14474902046948e-08,-2.9409721047219e-08,-9.20115693068588e-08,-9.20115693068657e-08,1.69405764249365e-07,-1.40469953579986e-07,2.89358106695194e-08,3.95087616075801e-07,-1.37111298372543e-08,3.95087616075767e-07,1.05559985690637e-07,-1.28191413508996e-07,-2.26314278185369e-08,2.57585747690638e-07,-2.16077141673867e-07,4.15086060165637e-08,6.30857523337659e-09,-2.13770188218986e-08,6.30857523312888e-09,2.71620344478652e-07,-9.88675989253381e-08,1.72752745553125e-07,-1.46590452368478e-07,-3.21012869387782e-08,-3.2101286938911e-08,1.99179100336939e-07,-1.99179100336848e-07,2.11592720510665e-07,1.39162348982037e-08,-2.68267991192247e-07,-2.54351756293806e-07,2.69910040742238e-08,-1.59774552303742e-07,-1.32783548229246e-07,-1.34943212266163e-07,-7.05003383301057e-08,-7.05003383301155e-08,-4.37545931245922e-08,,-9.90589356158693e-09,1.16924776096769e-07,1.2181744816508e-07,2.38742224262035e-07,1.65266805806889e-07,4.18623459370186e-08,4.18623459366949e-08,4.91543416859761e-08,-4.91543416858611e-08,8.69059762420734e-08,0,0,0,2.76479999999992,103,930.08786407767,589.877669902913,1762.91747572816,930.264077669903,929.911650485437,581.23786407767,598.517475728155,2042.00970873786,1483.82524271845,0
1868.1856,1.49848122146986e-07,-1.34605236983238e-07,1.52428851639201e-08,-2.01215671821049e-08,-8.78339218661565e-08,-8.78339218661639e-08,1.77148625922172e-07,-1.37332676239881e-07,3.98159496824251e-08,4.36883186052882e-07,-1.69279700312303e-08,4.36883186052833e-07,1.097715039026e-07,-1.21972270897907e-07,-1.22007669954843e-08,2.46801833627239e-07,-2.08823117314525e-07,3.79787163125102e-08,-6.4583423951411e-09,-2.80465610720344e-08,-6.45834239538679e-09,2.63097878184946e-07,-1.08818790448965e-07,1.54279087735798e-07,-1.38060321048273e-07,-3.19245068206642e-08,-3.19245068207974e-08,1.98685972279918e-07,-1.98685972279824e-07,1.92182311469316e-07,1.59110174039853e-08,-2.6135772041527e-07,-2.45446703011037e-07,5.01017990781869e-08,-1.59596340119951e-07,-1.09494541041484e-07,-1.42888562623341e-07,-7.15112959830809e-08,-7.15112959830945e-08,-3.79505904241259e-08,,-1.03457635743886e-08,1.25230844521829e-07,1.16435425148108e-07,2.41666269670118e-07,1.62536144864747e-07,3.40953284692669e-08,3.40953284689459e-08,4.64397059370425e-08,-4.64397059369313e-08,7.66512033384065e-08,0,0,0,2.86719999999991,102,932.805392156863,594.955392156863,1724.54901960784,932.898039215686,932.712745098039,588.932352941176,600.978431372549,2017.52941176471,1431.56862745098,0
1868.288,1.74924313036606e-07,-1.22446022399603e-07,5.2478290637176e-08,-1.03878186144123e-08,-8.39725427488945e-08,-8.39725427489017e-08,1.82294902422009e-07,-1.33742167469655e-07,4.85527349524815e-08,4.67646575882107e-07,-1.69171498370688e-08,4.6764657588204e-07,1.13715683366016e-07,-1.152166607257e-07,-1.50097735986103e-09,2.36139195678734e-07,-2.01922330082579e-07,3.42168655959549e-08,-1.6710321438714e-08,-3.56245998326997e-08,-1.67103214389575e-08,2.55233797078871e-07,-1.17432765406988e-07,1.37801031671704e-07,-1.27231557910123e-07,-3.29956867788542e-08,-3.29956867789874e-08,1.98678277445927e-07,-1.98678277445831e-07,1.72571745800785e-07,2.27878115745994e-08,-2.55078094597687e-07,-2.32290283022829e-07,7.29009092261243e-08,-1.58976931154141e-07,-8.60760219277271e-08,-1.49272550362135e-07,-7.17381157691899e-08,-7.17381157692071e-08,-3.07579477826905e-08,,-9.36914552828027e-09,1.31838661745876e-07,1.1054230342897e-07,2.4238096517502e-07,1.58412167210257e-07,2.57938326865661e-08,2.57938326862476e-08,4.33833655416783e-08,-4.33833655415684e-08,6.54318302696642e-08,0,0,0,2.9695999999999,102,938.44362745098,598.574019607843,1711.86274509804,937.277450980392,939.609803921569,579.309803921569,617.838235294118,2012.78431372549,1410.94117647059,0
1868.3904,1.98796133849146e-07,-1.09247292706234e-07,8.95488411430866e-08,-9.31506734273479e-10,-8.04294950785306e-08,-8.0429495078537e-08,1.84790026369611e-07,-1.29808981428264e-07,5.49810449414688e-08,4.87155903860093e-07,-1.39937459568337e-08,4.87155903860008e-07,1.17304354574129e-07,-1.0802759886876e-07,9.27675570519349e-09,2.25862284442998e-07,-1.95577102684598e-07,3.02851817582034e-08,-2.44118722938058e-08,-4.36257466916688e-08,-2.44118722940468e-08,2.48557002060318e-07,-1.24511303506309e-07,1.24045698553834e-07,-1.14458704869936e-07,-3.51824380794093e-08,-3.51824380795423e-08,1.99138575344196e-07,-1.99138575344097e-07,1.53550298002872e-07,3.42500768174996e-08,-2.49552120780834e-07,-2.15302043963067e-07,9.48157233666121e-08,-1.57896032746703e-07,-6.30803093797897e-08,-1.53910540366652e-07,-7.1157022608329e-08,-7.11570226083498e-08,-2.26659628007107e-08,,-7.18032760031815e-09,1.36471726316185e-07,1.04427791203184e-07,2.40899517519536e-07,1.532737812289e-07,1.72935763034058e-08,1.72935763030893e-08,4.00911724195022e-08,-4.00911724193911e-08,5.3610024458996e-08,0,0,0,3.07199999999989,103,948.426213592233,596.124757281553,1696.12621359223,945.002912621359,951.849514563107,571.300970873786,620.94854368932,1997.8932038835,1394.35922330097,0
1868.4928,2.2106190620939e-07,-9.52907913376167e-08,1.25771114871949e-07,7.7706612287781e-09,-7.7156998080463e-08,-7.7156998080468e-08,1.84685895100489e-07,-1.25627310781531e-07,5.90585843190736e-08,4.9556253574218e-07,-8.6089055146797e-09,4.95562535742076e-07,1.20483807080169e-07,-1.00552333572678e-07,1.99314735073169e-08,2.16322564632321e-07,-1.89985742134637e-07,2.63368224974913e-08,-2.96371517410279e-08,-5.15481457723702e-08,-2.96371517412668e-08,2.43452495450166e-07,-1.2995741971254e-07,1.13495075737453e-07,-1.00087027526179e-07,-3.82629560272695e-08,-3.82629560274019e-08,2.00007647726462e-07,-2.00007647726361e-07,1.35633159538296e-07,4.96514635966011e-08,-2.44910222351838e-07,-1.9525875875496e-07,1.15474145112354e-07,-1.56345009532002e-07,-4.08708644193348e-08,-1.56705852772723e-07,-6.98185776371672e-08,-6.98185776371917e-08,-1.41713047862291e-08,,-4.03825653796665e-09,1.39007623556187e-07,9.83797053555035e-08,2.3738732891185e-07,1.47489604072621e-07,8.92613474789244e-09,8.92613474757814e-09,3.6695738008227e-08,-3.66957380081124e-08,4.14898049956127e-08,0,0,0,3.17439999999988,102,946.907352941176,591.869117647059,1657.0637254902,945.76862745098,948.046078431373,564.758823529412,618.979411764706,1951.40196078431,1362.72549019608,0
1868.5952,2.4138532585706e-07,-8.09530317059091e-08,1.60432294151328e-07,1.54722900121461e-08,-7.40835176154118e-08,-7.40835176154152e-08,1.82127969509248e-07,-1.21273520539659e-07,6.08544489696991e-08,4.93382200591265e-07,-1.30845498549506e-09,4.93382200591143e-07,1.23231426140558e-07,-9.29690732290585e-08,3.02623529113268e-08,2.07910420399152e-07,-1.85333167985707e-07,2.25772524132549e-08,-3.25435245111507e-08,-5.89429871780963e-08,-3.25435245113878e-08,2.40149017811828e-07,-1.33763177649091e-07,1.06385840162565e-07,-8.44587692579901e-08,-4.19739816228283e-08,-4.19739816229604e-08,2.01202557464865e-07,-2.01202557464761e-07,1.19094952243017e-07,6.81744167805108e-08,-2.41296857745071e-07,-1.73122440964277e-07,1.34667442675858e-07,-1.54335849253441e-07,-1.96684065772566e-08,-1.5763178649804e-07,-6.78348927558353e-08,-6.78348927558635e-08,-5.72120709128099e-09,,-2.08882075707826e-10,1.39459731318221e-07,9.265007172005e-08,2.32109803038423e-07,1.41405731289317e-07,9.99328906422255e-10,9.99328906109624e-10,3.3333918129257e-08,-3.33339181291372e-08,2.93463125347317e-08,0,0,0,3.27679999999987,103,948.965048543689,591.977669902913,1636.57766990291,947.833009708738,950.097087378641,568.564077669903,615.391262135922,1936.59223300971,1336.56310679612,0
1868.6976,2.5942923974343e-07,-6.6697921785138e-08,1.9273131795847e-07,2.21231976789186e-08,-7.11432995696738e-08,-7.11432995696753e-08,1.77344322234194e-07,-1.16809237366803e-07,6.05350848674971e-08,4.81500323365007e-07,7.30444375179275e-09,4.81500323364869e-07,1.25545547147981e-07,-8.54687179004648e-08,4.00768292473452e-08,2.00992968779081e-07,-1.81774746175184e-07,1.92182226037103e-08,-3.33498682613757e-08,-6.54843399217506e-08,-3.33498682616115e-08,2.38720808239031e-07,-1.36002353585489e-07,1.0271845465337e-07,-6.79156810728045e-08,-4.60602220522878e-08,-4.60602220524192e-08,2.02636581631857e-07,-2.02636581631751e-07,1.0403703637497e-07,8.89623076371149e-08,-2.38870322810007e-07,-1.49908015172601e-07,1.52302433449625e-07,-1.51907271866974e-07,3.95161582989696e-10,-1.56720044512821e-07,-6.53593598061725e-08,-6.53593598062044e-08,2.3389737770395e-09,,4.07789227042007e-09,1.37952663951271e-07,8.74286696733355e-08,2.25381333624751e-07,1.35337396777972e-07,-6.22075770326408e-09,-6.22075770357501e-09,3.0118729614366e-08,-3.01187296142399e-08,1.74545729058388e-08,0,0,0,3.37919999999986,102,950.331862745098,590.908823529412,1631.19117647059,949.263725490196,951.4,569.436274509804,612.38137254902,1937,1325.38235294118,0
1868.8,2.74803811734738e-07,-5.30538834305377e-08,2.21749928304378e-07,2.78247625980539e-08,-6.82996285737707e-08,-6.82996285737702e-08,1.70633826416484e-07,-1.12288112479896e-07,5.83457139366892e-08,4.61147929838819e-07,1.66058107901199e-08,4.61147929838666e-07,1.27430591056363e-07,-7.82412610448081e-08,4.91893300113862e-08,1.95852614787561e-07,-1.79420780161297e-07,1.64318346260798e-08,-3.2316541835505e-08,-7.10188920940179e-08,-3.23165418357397e-08,2.39104083028033e-07,-1.36818847435306e-07,1.02285235592555e-07,-5.07907318611234e-08,-5.03160033936018e-08,-5.03160033937324e-08,2.04232969154918e-07,-2.0423296915481e-07,9.04718858205504e-08,1.11186033408794e-07,-2.37799771903983e-07,-1.26613738494893e-07,1.68350310880249e-07,-1.4912856768256e-07,1.92217431980382e-08,-1.54053824093558e-07,-6.25675771594025e-08,-6.25675771594378e-08,9.80525466403455e-09,,8.66582477178408e-09,1.34692212629932e-07,8.28285149362856e-08,2.17520727566356e-07,1.29564034480413e-07,-1.25248531992201e-08,-1.25248531995294e-08,2.71200394782279e-08,-2.71200394780946e-08,6.10703033516546e-09,0,0,0,3.48159999999984,102,951.426960784314,589.526470588235,1633.18137254902,950.910784313725,951.943137254902,570.838235294118,608.214705882353,1945.61764705882,1320.74509803922,0
1868.9024,2.87048926220122e-07,-4.05752097063366e-08,2.46473716513964e-07,3.27740460769799e-08,-6.55543864338338e-08,-6.55543864338315e-08,1.62350594090929e-07,-1.07761265551578e-07,5.45893285394502e-08,4.33826775008609e-07,2.59883750098767e-08,4.33826775008442e-07,1.28881476328642e-07,-7.14695451580653e-08,5.74119311704095e-08,1.92635595531455e-07,-1.78326957766521e-07,1.43086377647524e-08,-2.97264872652846e-08,-7.55748416605543e-08,-2.97264872655191e-08,2.41118276705369e-07,-1.36401877034995e-07,1.04716399670202e-07,-3.33973845691345e-08,-5.46106881331981e-08,-5.46106881333278e-08,2.05928270432803e-07,-2.05928270432692e-07,7.84026371369938e-08,1.34064044208538e-07,-2.38255106926409e-07,-1.04191062717571e-07,1.82799437714913e-07,-1.46098169880986e-07,3.6701267834288e-08,-1.49756745274604e-07,-5.96430780927216e-08,-5.96430780927604e-08,1.66299439823666e-08,,1.35007242797699e-08,1.29926910883574e-07,7.88852401743296e-08,2.08812151058035e-07,1.24326603859591e-07,-1.77715311067261e-08,-1.77715311070334e-08,2.4363263148687e-08,-2.43632631485463e-08,-4.38518721660839e-09,0,0,0,3.58399999999983,103,952.020388349515,603.122330097087,1643.57281553398,953.226213592233,950.814563106796,579.953398058253,626.291262135922,1942.10679611651,1345.03883495146,0
1869.0048,2.9565423251802e-07,-2.97912334155092e-08,2.65862999102688e-07,3.71983951662115e-08,-6.29425888302348e-08,-6.29425888302308e-08,1.52883870581128e-07,-1.03276029374036e-07,4.96078412071871e-08,4.0119589781131e-07,3.48999967228326e-08,4.01195897811132e-07,1.29870031597556e-07,-6.53248516053214e-08,6.45451799920697e-08,1.91318733196758e-07,-1.78490589231981e-07,1.2828143964598e-08,-2.5869794104698e-08,-7.93254386522852e-08,-2.58697941049322e-08,2.44483353968356e-07,-1.34950070308128e-07,1.09533283660055e-07,-1.60286178863776e-08,-5.889226910676e-08,-5.88922691068888e-08,2.07666474432697e-07,-2.07666474432584e-07,6.7877015641313e-08,1.56869734421825e-07,-2.40382634720966e-07,-8.35129002988372e-08,1.95622069431176e-07,-1.42932481020955e-07,5.2689588410591e-08,-1.43975623708586e-07,-5.67634810303641e-08,-5.67634810304065e-08,2.290643449764e-08,,1.86402656809413e-08,1.23903689734471e-07,7.55683825646662e-08,1.99472072299264e-07,1.19823196803395e-07,-2.18931187686787e-08,-2.18931187689844e-08,2.1841435232176e-08,-2.18414352320281e-08,-1.37068370301652e-08,0,1,0,3.68639999999982,102,951.817647058824,596.301470588235,1644.46078431373,953.854901960784,949.780392156863,573.258823529412,619.344117647059,1937.73529411765,1351.1862745098,0
1869.1072,3.00108348032585e-07,-2.11506413586676e-08,2.78957706674095e-07,4.12944685035442e-08,-6.05178578206689e-08,-6.05178578206633e-08,1.42635799519361e-07,-9.88687575541078e-08,4.37670419653458e-08,3.64953468075262e-07,4.28795132242927e-08,3.64953468075073e-07,1.30334758849576e-07,-5.99586611540298e-08,7.03760976953847e-08,1.91703711264939e-07,-1.7984985705905e-07,1.18538542057122e-08,-2.10377326206675e-08,-8.25256562763954e-08,-2.10377326209017e-08,2.48834893024505e-07,-1.32638638380749e-07,1.16196254643583e-07,1.03559625076514e-09,-6.31705200189845e-08,-6.31705200191122e-08,2.09388384766442e-07,-2.09388384766327e-07,5.90027882662278e-08,1.78940473908689e-07,-2.44261944859309e-07,-6.53214709503139e-08,2.06761750666302e-07,-1.39745646325031e-07,6.70161043416497e-08,-1.36864304365692e-07,-5.4082312568174e-08,-5.40823125682198e-08,2.88290927895953e-08,,2.42338121135654e-08,1.16830933501989e-07,7.27980918800025e-08,1.89629025382114e-07,1.16199295269375e-07,-2.48957712627961e-08,-2.48957712631003e-08,1.95280856997104e-08,-1.95280856995554e-08,-2.15640733612746e-08,0,1,0,3.78879999999981,103,949.884466019417,592.967475728155,1642.86893203884,953.558252427185,946.21067961165,578.542718446602,607.392233009709,1931.70873786408,1354.02912621359,0
1869.2096,2.99966800137227e-07,-1.49720827258289e-08,2.84994717411575e-07,4.51930613061754e-08,-5.83391339688076e-08,-5.83391339688008e-08,1.32000438900404e-07,-9.45596528451085e-08,3.74407860553861e-08,3.26745545228315e-07,4.95833667751637e-08,3.26745545228117e-07,1.3017637674185e-07,-5.54924861444075e-08,7.4683890597283e-08,1.93443385812666e-07,-1.82287149498359e-07,1.11562363141331e-08,-1.55321335260991e-08,-8.54516692030317e-08,-1.55321335263335e-08,2.53745897177229e-07,-1.29606113578545e-07,1.2413978359851e-07,1.75283272746785e-08,-6.74883973407464e-08,-6.74883973408729e-08,2.11022030154146e-07,-2.11022030154029e-07,5.19252150952268e-08,1.99678003610343e-07,-2.49845532860857e-07,-5.01675292502035e-08,2.16139106599642e-07,-1.366292848139e-07,7.95098217861286e-08,-1.28575896824986e-07,-5.17098387600772e-08,-5.17098387601264e-08,3.46398952222176e-08,,3.04688495694895e-08,1.08864316229108e-07,7.04602876297636e-08,1.7932460385899e-07,1.1353520626281e-07,-2.68540369436211e-08,-2.68540369439241e-08,1.73838022198079e-08,-1.73838022196462e-08,-2.77127983280603e-08,0,1,0,3.8911999999998,102,951.780882352941,595.304411764706,1642.80882352941,957.961764705882,945.6,577.708823529412,612.9,1938.64705882353,1346.97058823529,0
1869.312,2.94932212010226e-07,-1.14107944917355e-08,2.83521417518667e-07,4.89633415495202e-08,-5.64642963920131e-08,-5.64642963920052e-08,1.21345789419803e-07,-9.03568948971049e-08,3.0988894522787e-08,2.88105810590195e-07,5.47982752700314e-08,2.88105810589989e-07,1.29265041529461e-07,-5.20118161919174e-08,7.72532253373867e-08,1.96092398765295e-07,-1.85638978248873e-07,1.04534205162502e-08,-9.68709737465935e-09,-8.83611568127985e-08,-9.68709737489377e-09,2.58758282568565e-07,-1.25964588973881e-07,1.32793693594511e-07,3.32145510503933e-08,-7.18912740714582e-08,-7.18912740715835e-08,2.12478053038675e-07,-2.12478053038555e-07,4.67765862636453e-08,2.18536096371764e-07,-2.56896647190634e-07,-3.83605508185569e-08,2.23665535111458e-07,-1.33642568038951e-07,9.00229670728991e-08,-1.19264516869511e-07,-4.97030555846699e-08,-4.97030555847226e-08,4.05743087971273e-08,,3.74987073241649e-08,1.00119013294566e-07,6.84192825248602e-08,1.68538295819542e-07,1.1183865989972e-07,-2.79002348627165e-08,-2.79002348630184e-08,1.53615969141644e-08,-1.53615969139964e-08,-3.19818329553634e-08,0,0,0,3.99359999999979,102,953.40637254902,591.412254901961,1637.24509803922,962.939215686275,943.873529411765,577.487254901961,605.337254901961,1940.59803921569,1333.89215686275,0
1869.4144,2.84937235934132e-07,-1.04438810014255e-08,2.74493354932883e-07,5.26507483964188e-08,-5.49463535590308e-08,-5.49463535590221e-08,1.10997865279238e-07,-8.62683434131025e-08,2.47295218662228e-08,2.50396848260101e-07,5.84419423577524e-08,2.50396848259888e-07,1.27464501168198e-07,-4.95646677285595e-08,7.78998334394836e-08,1.9916556369417e-07,-1.89708351955462e-07,9.45721173853909e-09,-3.88764338750962e-09,-9.14718857534673e-08,-3.88764338774388e-09,2.63412528237888e-07,-1.21818809798959e-07,1.41593718438756e-07,4.79190165330956e-08,-7.63988495539609e-08,-7.63988495540849e-08,2.13650512695427e-07,-2.13650512695305e-07,4.36110461652976e-08,2.35016413875154e-07,-2.6495233162461e-07,-2.99359177491414e-08,2.29254204160409e-07,-1.30814360189704e-07,9.84398439711029e-08,-1.0909235755361e-07,-4.80719499791014e-08,-4.80719499791573e-08,4.6817427270786e-08,,4.5380064548321e-08,9.06982325709328e-08,6.653303941319e-08,1.57231271984236e-07,1.11048104980261e-07,-2.8207998151304e-08,-2.82079981516053e-08,1.34195415585705e-08,-1.34195415583963e-08,-3.42865488570154e-08,0,0,0,4.09599999999978,103,955.553883495146,597.415533980583,1625.95145631068,965.770873786408,945.336893203883,582.820388349515,612.010679611651,1932.10679611651,1319.79611650485,0
1869.5168,2.70207694157476e-07,-1.18720336350291e-08,2.58335660522623e-07,5.63279895009155e-08,-5.38246328090211e-08,-5.38246328090117e-08,1.01224200467286e-07,-8.23118356285817e-08,1.89123648387901e-08,2.14718950079694e-07,6.05575755972489e-08,2.14718950079474e-07,1.24669546351348e-07,-4.81581212762295e-08,7.65114250749647e-08,2.021923329902e-07,-1.94272604662526e-07,7.91972832750948e-09,1.43356924007138e-09,-9.49483895376263e-08,1.43356923983739e-09,2.67260361584522e-07,-1.17274606476044e-07,1.49985755108304e-07,6.15410127863621e-08,-8.09819739540667e-08,-8.09819739541892e-08,2.14422113216055e-07,-2.14422113215933e-07,4.23410292049195e-08,2.48693764981161e-07,-2.73329352033823e-07,-2.46355870523441e-08,2.32827255075885e-07,-1.28149952184082e-07,1.04677302892205e-07,-9.82363838770208e-08,-4.6798250969214e-08,-4.67982509692732e-08,5.34776858724745e-08,,5.4044386674481e-08,8.07240082927608e-08,6.46748591461899e-08,1.45398867439062e-07,1.1104460427332e-07,-2.79703561658101e-08,-2.7970356166111e-08,1.15392446662386e-08,-1.15392446660585e-08,-3.46333592282989e-08,0,0,0,4.19839999999999,102,957.560294117647,590.932843137255,1613.11764705882,969.044117647059,946.076470588235,581.911764705882,599.953921568628,1925.12745098039,1301.10784313726,0
1869.6192,2.51276915148725e-07,-1.533659870769e-08,2.35940316441212e-07,6.01375802137753e-08,-5.3109915074036e-08,-5.31099150740262e-08,9.22166597108645e-08,-7.85170018555851e-08,1.36996578553633e-08,1.81794756311639e-07,6.13033624335621e-08,1.81794756311412e-07,1.20842367408979e-07,-4.77478438410488e-08,7.30945235677786e-08,2.04765202611777e-07,-1.99086556450942e-07,5.67864616067464e-09,5.82964103026083e-09,-9.88930349128826e-08,5.82964103002732e-09,2.6986010689345e-07,-1.12431756618585e-07,1.57428350274692e-07,7.40432003059004e-08,-8.55492649887181e-08,-8.5549264988839e-08,2.1467299169043e-07,-2.14672991690307e-07,4.26946077097001e-08,2.59261920125021e-07,-2.81169421314718e-07,-2.19075011893767e-08,2.34327077334837e-07,-1.25634164023986e-07,1.08692913311257e-07,-8.68897913537494e-08,-4.58538558191898e-08,-4.58538558192521e-08,6.05784959602537e-08,,6.33081332784057e-08,7.03598613434753e-08,6.27571059575646e-08,1.33116967301149e-07,1.11665106404288e-07,-2.73762914648834e-08,-2.73762914651845e-08,9.73848253189089e-09,-9.73848253170528e-09,-3.31185920645704e-08,0,0,0,4.30079999999998,103,956.810194174757,584.245145631068,1585.47087378641,969.244660194175,944.37572815534,578.966019417476,589.52427184466,1891.67961165049,1279.26213592233,0
1869.7216,2.28936283486515e-07,-2.03533463719222e-08,2.0858293711477e-07,6.43088610926612e-08,-5.27709450743351e-08,-5.27709450743251e-08,8.40791914294509e-08,-7.49193731418597e-08,9.15981828767292e-09,1.51898676630049e-07,6.09299868085172e-08,1.51898676629815e-07,1.16029669940383e-07,-4.822534878086e-08,6.78043211593727e-08,2.06579548355928e-07,-2.03886622334078e-07,2.69292602169294e-09,8.8931838340231e-09,-1.03346106084994e-07,8.89318383379061e-09,2.70772867667787e-07,-1.07372748818625e-07,1.63400118848991e-07,8.54217127800884e-08,-8.99507372645071e-08,-8.99507372646263e-08,2.14292788606674e-07,-2.14292788606552e-07,4.42121332546157e-08,2.66566303603534e-07,-2.87512615978874e-07,-2.09463123750172e-08,2.33735739359496e-07,-1.23229523791363e-07,1.10506215568542e-07,-7.52555287675722e-08,-4.52071483851051e-08,-4.52071483851703e-08,6.80611706816424e-08,,7.29068028820381e-08,5.98189866211823e-08,6.07460009774627e-08,1.20564987598753e-07,1.12711518848433e-07,-2.65921816422654e-08,-2.6592181642567e-08,8.06608450085272e-09,-8.06608450066209e-09,-2.99239515989874e-08,0,0,0,4.40319999999997,102,952.300016339869,581.928810457516,1574.97225490196,963.17160130719,941.428431372549,575.649189542484,588.208431372549,1895.03862745098,1254.90588235294,0.107843137254902
1869.824,2.04135215962846e-07,-2.63638823378087e-08,1.77771333625215e-07,6.91379743991573e-08,-5.27332226098833e-08,-5.27332226098732e-08,7.68287512378606e-08,-7.15538374801723e-08,5.27491375776734e-09,1.24905643849758e-07,5.9739854140989e-08,1.24905643849517e-07,1.10352432583065e-07,-4.94159586023112e-08,6.09364739806036e-08,2.07456759966415e-07,-2.08400982823952e-07,-9.44222857688188e-10,1.03090030273017e-08,-1.08299333968026e-07,1.03090030270708e-08,2.69582599818929e-07,-1.02161158718195e-07,1.67421441100563e-07,9.56781719090037e-08,-9.40011376358145e-08,-9.40011376359321e-08,2.13195106216664e-07,-2.13195106216542e-07,4.62938393307428e-08,2.70595756357835e-07,-2.91394306468223e-07,-2.07985501100618e-08,2.3109388174509e-07,-1.20876074937221e-07,1.10217806808283e-07,-6.35323044294724e-08,-4.48164034430513e-08,-4.48164034431192e-08,7.57914007114355e-08,,8.25306432992065e-08,4.93537849956391e-08,5.86591133488457e-08,1.08012898344591e-07,1.13957444402794e-07,-2.57527821938882e-08,-2.57527821941905e-08,6.57752080900239e-09,-6.5775208088078e-09,-2.53058448312847e-08,0,0,0,4.50559999999996,102,947.555130718954,563.655503267974,1553.81941176471,961.160261437909,933.95,550.242967320261,577.068039215686,1867.67215686275,1239.96666666667,0.372549019607843
1869.9264,1.77866956371191e-07,-3.28006796886257e-08,1.45066276682743e-07,7.49316693850674e-08,-5.28953602656889e-08,-5.28953602656791e-08,7.04133525868852e-08,-6.84536948788351e-08,1.95965770812574e-09,1.00457674852366e-07,5.80344648469637e-08,1.00457674852116e-07,1.03980555279118e-07,-5.10973630642217e-08,5.28831922147471e-08,2.07342839536467e-07,-2.12367574924955e-07,-5.02473538863367e-09,9.88797627563804e-09,-1.13715759936824e-07,9.88797627540952e-09,2.65948624250047e-07,-9.68535654498163e-08,1.69095058800063e-07,1.04808383738213e-07,-9.7515721554399e-08,-9.75157215545147e-08,2.11329536992974e-07,-2.11329536992853e-07,4.8293288961343e-08,2.71438403918181e-07,-2.9196250582664e-07,-2.05241019081278e-08,2.26504712673408e-07,-1.18500278366031e-07,1.08004434307795e-07,-5.18959584638794e-08,-4.46203890766069e-08,-4.4620389076677e-08,8.35660905552849e-08,,9.18488012772707e-08,3.92253229813238e-08,5.65475550721152e-08,9.57728780535434e-08,1.15159645142418e-07,-2.4961602394809e-08,-2.49616023951119e-08,5.30438450491015e-09,-5.30438450471285e-09,-1.95742977617205e-08,0,0,0,4.60799999999995,103,948.014563106796,566.969902912621,1532.1213592233,963.188349514563,932.840776699029,560.420388349515,573.519417475728,1807.66990291262,1256.57281553398,0
1870.0288,1.51077795066036e-07,-3.91535462027751e-08,1.11924248863438e-07,8.19298186723945e-08,-5.31559348322698e-08,-5.31559348322604e-08,6.47439453051591e-08,-6.56542267198165e-08,-9.10281414586112e-10,7.81698693941284e-08,5.60681836396242e-08,7.81698693938706e-08,9.7114841815196e-08,-5.30355592991731e-08,4.40792825158745e-08,2.06280452250742e-07,-2.15556833948385e-07,-9.2763816977841e-09,7.57666213807444e-09,-1.19537865699855e-07,7.57666213784934e-09,2.59675059765815e-07,-9.15165975428718e-08,1.68158462222779e-07,1.12804251628482e-07,-1.00344603910453e-07,-1.00344603910567e-07,2.08684903595133e-07,-2.08684903595014e-07,4.963123714658e-08,2.6923626037677e-07,-2.88604821592444e-07,-1.93685612153393e-08,2.20116578287131e-07,-1.16032821112267e-07,1.04083757175286e-07,-4.04800704521724e-08,-4.45366492073739e-08,-4.45366492074453e-08,9.11198168809056e-08,,1.00523612428953e-07,2.96562903082363e-08,5.44738826237365e-08,8.4130172932075e-08,1.16077395314079e-07,-2.42966494402873e-08,-2.42966494405902e-08,4.23686465617083e-09,-4.23686465597244e-09,-1.30624199619721e-08,0,0,0,4.71039999999994,102,949.277941176471,561.602450980392,1554.68137254902,965.204901960784,933.350980392157,549.294117647059,573.910784313726,1824.94117647059,1284.42156862745,0
1870.1312,1.24616482711675e-07,-4.50217771744059e-08,7.95947055374451e-08,9.02263508375078e-08,-5.34363697408597e-08,-5.3436369740851e-08,5.97314967431462e-08,-6.31937693259321e-08,-3.46227258271984e-09,5.77953460961417e-08,5.40246536358333e-08,5.77953460958739e-08,8.99867923818009e-08,-5.50243521501021e-08,3.49624402315509e-08,2.0436238059139e-07,-2.17794035924276e-07,-1.34316553330228e-08,3.44603938637363e-09,-1.25671038826825e-07,3.4460393861529e-09,2.50767392921792e-07,-8.62345525350901e-08,1.64532840386543e-07,1.19657648600215e-07,-1.02394117930593e-07,-1.02394117930705e-07,2.05283237844059e-07,-2.05283237843941e-07,4.98971841460797e-08,2.64168186458711e-07,-2.81063646823936e-07,-1.6895460364886e-08,2.12090929126992e-07,-1.13427006937429e-07,9.86639221899894e-08,-2.93597342832832e-08,-4.44694319956449e-08,-4.44694319957171e-08,9.81290496724442e-08,,1.08223748584248e-07,2.07761710896004e-08,5.24969697159145e-08,7.32731408056145e-08,1.16495301550098e-07,-2.38171569866343e-08,-2.38171569869365e-08,3.3284737385436e-09,-3.32847373834605e-09,-6.09370783169942e-09,0,0,0,4.81279999999993,103,949.818446601942,560.854854368932,1573.23300970874,966.638834951456,932.998058252427,550.277669902913,571.432038834951,1842.53398058252,1303.93203883495,0
1870.2336,9.92153419730131e-08,-5.01417381033734e-08,4.90736038698143e-08,9.97067896416646e-08,-5.36898021466467e-08,-5.36898021466389e-08,5.53188142115629e-08,-6.11066429875523e-08,-5.78782877592948e-09,3.93139207428602e-08,5.20201912157882e-08,3.93139207425817e-08,8.2867457371015e-08,-5.69139887945185e-08,2.59534685763492e-08,2.0168529735765e-07,-2.18978103125256e-07,-1.72928057677361e-08,-2.33126988021111e-09,-1.31949896246754e-07,-2.3312698804264e-09,2.39453096070239e-07,-8.10996106518062e-08,1.58353485418278e-07,1.25362615526114e-07,-1.03631560050417e-07,-1.03631560050527e-07,2.01169799363991e-07,-2.01169799363876e-07,4.89130034398673e-08,2.56458434380862e-07,-2.69510970215931e-07,-1.30525358347235e-08,2.02572158391496e-07,-1.10668509861821e-07,9.19036485301067e-08,-1.85427084733746e-08,-4.43216114186911e-08,-4.43216114187635e-08,1.04216069231507e-07,,1.14641655205068e-07,1.25715293944468e-08,5.066782033633e-08,6.32393497308733e-08,1.16241842230464e-07,-2.35689034634434e-08,-2.35689034637442e-08,2.51616627789766e-09,-2.51616627770281e-09,1.04373666425013e-09,0,1,0,4.91519999999991,102,949.981862745098,548.819117647059,1586.32352941176,965.849019607843,934.114705882353,528.301960784314,569.336274509804,1857.20588235294,1315.44117647059,0
1870.336,7.54821652152244e-08,-5.43885801381897e-08,2.1093585077207e-08,1.10021197644466e-07,-5.38963185372487e-08,-5.38963185372421e-08,5.14982253244802e-08,-5.94083314541272e-08,-7.91010612959404e-09,2.29444171804533e-08,5.01277837035836e-08,2.29444171801633e-08,7.60683244298161e-08,-5.86204666062136e-08,1.74478578234557e-08,1.98322598751411e-07,-2.19093527788891e-07,-2.07709290376054e-08,-9.50205301178086e-09,-1.38114920160838e-07,-9.50205301198991e-09,2.26162359621404e-07,-7.61913281801496e-08,1.49971031441106e-07,1.29920361670593e-07,-1.0407718085009e-07,-1.04077180850197e-07,1.96403492065616e-07,-1.96403492065504e-07,4.67443898823655e-08,2.4638224391811e-07,-2.54555880407876e-07,-8.17363648941612e-09,1.91676505781159e-07,-1.0777257806833e-07,8.39039277132652e-08,-7.97297439630218e-09,-4.40035810549901e-08,-4.40035810550617e-08,1.08962378437899e-07,,1.1951347864599e-07,4.85841132953531e-09,4.90315546940289e-08,5.38899660236572e-08,1.15196967813638e-07,-2.35873672096874e-08,-2.35873672099866e-08,1.73936685452938e-09,-1.739366854339e-09,8.11015801923436e-09,0,1,0,5.0175999999999,102,950.439705882353,545.859803921569,1581.13725490196,969.158823529412,931.720588235294,528.089215686275,563.630392156863,1863.44117647059,1298.83333333333,0
1870.4384,5.38879972128116e-08,-5.77579892125247e-08,-3.86999199954397e-09,1.20615444494907e-07,-5.40529544540496e-08,-5.40529544540444e-08,4.83103600100799e-08,-5.80796244823087e-08,-9.76926447218318e-09,9.08969403659086e-09,4.84090688915611e-08,9.08969403628952e-09,6.99228752610303e-08,-6.01162840835125e-08,9.80659117737148e-09,1.94323097633521e-07,-2.18212217479357e-07,-2.38891198459559e-08,-1.7744875702131e-08,-1.43828805289784e-07,-1.77448757023327e-08,2.11479056540961e-07,-7.15610240602981e-08,1.39918032480521e-07,1.33354035478627e-07,-1.03790375919247e-07,-1.03790375919353e-07,1.91048693548513e-07,-1.91048693548404e-07,4.36573324469928e-08,2.34240934484548e-07,-2.37168252398191e-07,-2.92731791328892e-09,1.79506600992738e-07,-1.04771481017095e-07,7.47351199760834e-08,2.45019116649878e-09,-4.34367215931373e-08,-4.34367215932068e-08,1.11942118165673e-07,,1.22635153890767e-07,-2.70547488716938e-09,4.76259196219613e-08,4.49204447348813e-08,1.13287579655803e-07,-2.38986323883846e-08,-2.38986323886816e-08,9.45428980314695e-10,-9.45428980130284e-10,1.49141748447084e-08,0,1,0,5.11999999999989,103,949.302912621359,545.373786407767,1559.21359223301,968.626213592233,929.979611650485,525.2,565.547572815534,1851.46601941748,1266.96116504854,0
1870.5408,3.47539139689059e-08,-6.03375013702398e-08,-2.55835874011687e-08,1.30839686940402e-07,-5.41664885113544e-08,-5.41664885113506e-08,4.58236504317284e-08,-5.70596896000389e-08,-1.12360391682724e-08,-1.78467694255791e-09,4.69395321752548e-08,-1.78467694286983e-09,6.4749563070622e-08,-6.14132800567934e-08,3.33628301368293e-09,1.89732970039582e-07,-2.16489033436363e-07,-2.67560633968961e-08,-2.66794649337725e-08,-1.48739091141101e-07,-2.66794649339662e-08,1.96075470788963e-07,-6.72328797703048e-08,1.28842591018524e-07,1.35738574230099e-07,-1.02854578090612e-07,-1.02854578090716e-07,1.85168483850448e-07,-1.85168483850343e-07,4.00269561741267e-08,2.20306948449792e-07,-2.18524330207152e-07,1.78261824299811e-09,1.66182230365485e-07,-1.01699700340533e-07,6.4482530025398e-08,1.28415518339595e-08,-4.25556809679923e-08,-4.2555680968059e-08,1.12777141648367e-07,,1.23871237977669e-07,-1.0560988754681e-08,4.64701081018297e-08,3.59091193472343e-08,1.10478762907646e-07,-2.45179838822049e-08,-2.45179838824994e-08,8.49880668644367e-11,-8.49880666872546e-11,2.13046568968674e-08,0,0,0,5.22239999999988,102,948.622549019608,544.572549019608,1542.05392156863,969.305882352941,927.939215686275,526.809803921569,562.335294117647,1836.48039215686,1247.62745098039,0
1870.6432,1.82523360570476e-08,-6.22746407574407e-08,-4.40223047002326e-08,1.40120076740666e-07,-5.42486421666908e-08,-5.42486421666887e-08,4.40978359678767e-08,-5.62541594245232e-08,-1.21563234566157e-08,-9.33234082242199e-09,4.58159779122483e-08,-9.33234082274344e-09,6.08050352165087e-08,-6.25510303097823e-08,-1.74599509341866e-09,1.84632011192413e-07,-2.14158626909179e-07,-2.95266157168767e-08,-3.58833891574004e-08,-1.52559264401773e-07,-3.58833891575852e-08,1.80642573585795e-07,-6.32197362705588e-08,1.17422837315109e-07,1.3724096506161e-07,-1.01361846342801e-07,-1.01361846342902e-07,1.78820224881542e-07,-1.78820224881442e-07,3.62169259648908e-08,2.04774591048892e-07,-1.9981762976673e-07,4.95696128252329e-09,1.51868961567064e-07,-9.85850148195282e-08,5.32839467479866e-08,2.32996280173035e-08,-4.13147602325546e-08,-4.13147602326177e-08,1.11201527616975e-07,,1.23159042995382e-07,-1.91546417235317e-08,4.55490395668602e-08,2.63943978434103e-08,1.06771723056949e-07,-2.54458944322639e-08,-2.54458944325556e-08,-8.87889518168186e-10,8.87889518337514e-10,2.71612726143632e-08,0,0,0,5.32479999999987,103,948.335436893204,550.616990291262,1543.27184466019,967.358252427185,929.312621359223,542.515533980583,558.718446601942,1836.17475728155,1250.36893203884,0
1870.7456,4.43251804828926e-09,-6.37443409503811e-08,-5.93118229019366e-08,1.48126968727767e-07,-5.43079933596333e-08,-5.4307993359633e-08,4.31415677848158e-08,-5.55547973966909e-08,-1.2413229611851e-08,-1.35145589471363e-08,4.51438894328994e-08,-1.3514558947466e-08,5.82396783741777e-08,-6.35957351978836e-08,-5.35605682385003e-09,1.79164842999607e-07,-2.11532679371032e-07,-3.23678363715326e-08,-4.4921983023098e-08,-1.55123115974421e-07,-4.49219830232738e-08,1.65823034314994e-07,-5.95374220352326e-08,1.06285612279642e-07,1.38150204108744e-07,-9.93992624798415e-08,-9.9399262479941e-08,1.72054661332939e-07,-1.72054661332843e-07,3.246345378216e-08,1.87758216275004e-07,-1.8210330928818e-07,5.65490698718896e-09,1.36787699340509e-07,-9.54498051934232e-08,4.1337894147542e-08,3.38904808233102e-08,-3.96972742079698e-08,-3.96972742080285e-08,1.07110533980257e-07,,1.20509589936815e-07,-2.88493335722634e-08,4.48067415385849e-08,1.59574079663994e-08,1.02210572473949e-07,-2.66622554986809e-08,-2.666225549897e-08,-2.00306036607817e-09,2.00306036623927e-09,3.23906640693714e-08,0,0,0,5.42719999999986,102,948.918468232254,545.902183715864,1544.92830597355,966.765139078887,931.071797385621,540.232580939353,551.571786492375,1837.52621979024,1252.33039215686,0.313725490196078
1870.848,-6.73665762254859e-09,-6.49182661874423e-08,-7.16549238098414e-08,1.54855000758103e-07,-5.43383719295137e-08,-5.43383719295151e-08,4.28834105242293e-08,-5.48604438972645e-08,-1.19770333730174e-08,-1.46950946938922e-08,4.50116892269291e-08,-1.46950946942288e-08,5.70713353421256e-08,-6.46420524533391e-08,-7.57071711135693e-09,1.73545557673875e-07,-2.0898721658186e-07,-3.54416589080894e-08,-5.33902232859006e-08,-1.56384690576807e-07,-5.33902232860672e-08,1.52150296685195e-07,-5.62025659587046e-08,9.59477307263781e-08,1.38869559963244e-07,-9.70412609156275e-08,-9.70412609157248e-08,1.64917051098309e-07,-1.64917051098219e-07,2.88061957613186e-08,1.69347372141597e-07,-1.6621759815914e-07,3.12977398282437e-09,1.21196344581166e-07,-9.23203711197728e-08,2.88759734618541e-08,4.46501484190905e-08,-3.77211950792511e-08,-3.77211950793049e-08,1.00571026962765e-07,,1.16002154247244e-07,-3.98760975275001e-08,4.41578868645771e-08,4.28178933715118e-09,9.68894775964983e-08,-2.81214048778952e-08,-2.81214048781814e-08,-3.25761237357459e-09,3.25761237372731e-09,3.69327121815147e-08,0,0,0,5.52959999999985,102,954.356531767746,539.722816284137,1542.21875284998,971.775056999544,936.938006535948,535.661536707706,543.784095860567,1841.87574099407,1242.56176470588,0.46078431372549
1870.9504,-1.53255334232021e-08,-6.59416963821982e-08,-8.12672298052571e-08,1.60581013829553e-07,-5.4310769499297e-08,-5.43107694993001e-08,4.31742479665039e-08,-5.40898698938968e-08,-1.0915621927381e-08,-1.35771540429536e-08,4.54648115047593e-08,-1.3577154043296e-08,5.71894771626961e-08,-6.58057917750352e-08,-8.6163146124819e-09,1.68030154342049e-07,-2.06931005887322e-07,-3.89008515453763e-08,-6.09560754132594e-08,-1.56374110805582e-07,-6.09560754134168e-08,1.39998701669065e-07,-5.32169342592359e-08,8.67817674097234e-08,1.39859257193608e-07,-9.43488957514313e-08,-9.43488957515264e-08,1.57446395220407e-07,-1.57446395220322e-07,2.50896350142837e-08,1.49688606482175e-07,-1.52755067156554e-07,-3.06646067400885e-09,1.05349181265183e-07,-8.92372128923889e-08,1.611196837326e-08,5.55961105679002e-08,-3.54357098638327e-08,-3.54357098638815e-08,9.17919109272953e-08,,1.09770840973936e-07,-5.2336859280076e-08,4.35135171434828e-08,-8.82334213652293e-09,9.09498153034945e-08,-2.97499269897556e-08,-2.97499269900387e-08,-4.61020770122898e-09,4.61020770137327e-09,4.07747409432458e-08,0,0,0,5.63199999999983,103,958.806310679612,548.61213592233,1544.84466019417,976.394174757282,941.218446601942,552.047572815534,545.176699029126,1847.79611650485,1241.8932038835,0
1871.0528,-2.14230676592268e-08,-6.69223334016898e-08,-8.83454010607803e-08,1.6574275100415e-07,-5.41752314063181e-08,-5.4175231406323e-08,4.3821717926792e-08,-5.31846004494671e-08,-9.3628825226688e-09,-1.10132791013039e-08,4.64899634693487e-08,-1.10132791016513e-08,5.83863522552054e-08,-6.72036684510132e-08,-8.81731619594985e-09,1.62869686706387e-07,-2.05755933580644e-07,-4.28862468743586e-08,-6.73914428163522e-08,-1.55146170562824e-07,-6.73914428165003e-08,1.29552728874234e-07,-5.05558711766624e-08,7.8996857697472e-08,1.41550204887405e-07,-9.13731172921805e-08,-9.13731172922736e-08,1.49671311514207e-07,-1.49671311514127e-07,2.10241726062876e-08,1.2904101287236e-07,-1.42058300147056e-07,-1.30172872743246e-08,8.94519684619957e-08,-8.62604228498264e-08,3.1915456126402e-09,6.67329406494537e-08,-3.29092209187632e-08,-3.29092209188064e-08,8.10743622341602e-08,,1.01986105433513e-07,-6.62356710600774e-08,4.28077888046448e-08,-2.34278822553659e-08,8.45633232800701e-08,-3.14478548020073e-08,-3.14478548022869e-08,-5.99382355289577e-09,5.99382355303135e-09,4.39649540483384e-08,0,0,0,5.73439999999982,102,956.786274509804,541.298039215686,1569.97058823529,974.485294117647,939.087254901961,542.590196078431,540.005882352941,1881.62745098039,1258.3137254902,0
1871.1552,-2.5142333496287e-08,-6.79306312714007e-08,-9.30729647675587e-08,1.70813915286557e-07,-5.38733746428436e-08,-5.38733746428502e-08,4.46389650836068e-08,-5.21075361278658e-08,-7.46857104425848e-09,-7.78415263087031e-09,4.80121127663106e-08,-7.78415263122309e-09,6.03999186219243e-08,-6.89294359525384e-08,-8.52951733075494e-09,1.58264497874448e-07,-2.0578210838352e-07,-4.75176105091714e-08,-7.25862937820431e-08,-1.5275570081863e-07,-7.25862937821819e-08,1.20802143191817e-07,-4.81735174755083e-08,7.26286257162158e-08,1.44270601611073e-07,-8.81597100132706e-08,-8.81597100133615e-08,1.41605946854457e-07,-1.41605946854383e-07,1.62763861128697e-08,1.07762563332464e-07,-1.34200659116206e-07,-2.64380957833686e-08,7.36286919593708e-08,-8.34694923890859e-08,-9.84080042923865e-09,7.80462759108536e-08,-3.02152327432577e-08,-3.02152327432949e-08,6.87643431632146e-08,,9.28354628053985e-08,-8.15065440481699e-08,4.20135064919989e-08,-3.9493037556108e-08,7.79071388994066e-08,-3.30939806155957e-08,-3.30939806158714e-08,-7.34040267837183e-09,7.3404026784982e-09,4.66169606658859e-08,0,0,0,5.83679999999981,103,935.741747572816,539.509708737864,1595.03398058252,955.452427184466,916.031067961165,540.800970873786,538.218446601942,1910.33009708738,1279.73786407767,0
1871.2576,-2.66408459035626e-08,-6.90069729916591e-08,-9.56478188951005e-08,1.76220318623682e-07,-5.33559201917815e-08,-5.335592019179e-08,4.54854730706473e-08,-5.08429304142873e-08,-5.35745734364537e-09,-4.44400988019894e-09,4.99040808702011e-08,-4.44400988055787e-09,6.29550519768194e-08,-7.10387520231786e-08,-8.08370004649846e-09,1.54336025721464e-07,-2.0721467694216e-07,-5.28786512207948e-08,-7.65511228964768e-08,-1.49267328121251e-07,-7.65511228966061e-08,1.13562683556648e-07,-4.60191993985668e-08,6.75434841579951e-08,1.48210571356331e-07,-8.47547752346124e-08,-8.47547752347014e-08,1.332504037945e-07,-1.33250403794432e-07,1.05594953713646e-08,8.62331942882099e-08,-1.28981454208468e-07,-4.27482599198838e-08,5.79071777925295e-08,-8.09592496684905e-08,-2.30520718754787e-08,8.94912341245589e-08,-2.74234785202883e-08,-2.74234785203195e-08,5.52192137500647e-08,,8.25097526431073e-08,-9.80233228845431e-08,4.11430829901118e-08,-5.68802398943719e-08,7.11422241733565e-08,-3.45557489041321e-08,-3.45557489044033e-08,-8.60318548818231e-09,8.60318548829882e-09,4.89036473158283e-08,0,0,0,5.9391999999998,102,930.707843137255,543.93137254902,1606.60294117647,951.902941176471,909.512745098039,545.773529411765,542.089215686275,1922.21568627451,1290.99019607843,0
1871.36,-2.61397674983936e-08,-7.01685144187434e-08,-9.63082819170244e-08,1.82294004647204e-07,-5.25961955125792e-08,-5.25961955125897e-08,4.62858550364761e-08,-4.939622316655e-08,-3.1103681300857e-09,-1.28787720838785e-09,5.20105433502334e-08,-1.28787720875281e-09,6.57944397262462e-08,-7.35455961763189e-08,-7.75115645021015e-09,1.51121123294265e-07,-2.10120028455974e-07,-5.8998905161807e-08,-7.94091683492331e-08,-1.44781421422638e-07,-7.94091683493529e-08,1.07512928505333e-07,-4.40476427273835e-08,6.34652857778716e-08,1.53414493621471e-07,-8.12084473711335e-08,-8.12084473712204e-08,1.24597397641173e-07,-1.24597397641112e-07,3.70340357590435e-09,6.47672716133102e-08,-1.25957478469772e-07,-6.11902068560858e-08,4.22283381231114e-08,-7.88317330605347e-08,-3.6603394936935e-08,1.00984464771101e-07,-2.4598078219241e-08,-2.45980782192657e-08,4.07904773027682e-08,,7.12029805696777e-08,-1.15597532800834e-07,4.02397148682211e-08,-7.53578179325573e-08,6.4401261893425e-08,-3.57029256413688e-08,-3.57029256416346e-08,-9.76625673033334e-09,9.76625673043886e-09,5.10422016046284e-08,0,0,0,6.04159999999979,102,930.106862745098,537.933823529412,1578.43137254902,951.616666666667,908.597058823529,542.592156862745,533.275490196078,1893.39215686275,1263.47058823529,0
1871.4624,-2.39342238436232e-08,-7.14100055228164e-08,-9.53442293663363e-08,1.89246066082638e-07,-5.15932792217594e-08,-5.15932792217721e-08,4.70250532803823e-08,-4.77889873236668e-08,-7.63934043303333e-10,1.57319869387106e-09,5.41841774586845e-08,1.57319869349847e-09,6.86926205010271e-08,-7.64243468314459e-08,-7.73172633055388e-09,1.48585006766787e-07,-2.14416805490982e-07,-6.58317987242929e-08,-8.13716056290783e-08,-1.3945381263894e-07,-8.1371605629188e-08,1.02237181884138e-07,-4.22146401339161e-08,6.00225417501519e-08,1.59779939615408e-07,-7.75747391624431e-08,-7.75747391625278e-08,1.15644763909453e-07,-1.15644763909397e-07,-4.30951400010063e-09,4.35639089645102e-08,-1.24510350140995e-07,-8.09464411761073e-08,2.64831181825009e-08,-7.71818946812037e-08,-5.06987764982082e-08,1.12403631365549e-07,-2.1798169393713e-08,-2.17981693937311e-08,2.58207564686602e-08,,5.91277161024579e-08,-1.33974412565154e-07,3.93640788032663e-08,-9.46103337618354e-08,5.77818725959948e-08,-3.64232712498524e-08,-3.6423271250112e-08,-1.08405327572946e-08,1.08405327573881e-08,5.32703513833878e-08,0,1,0,6.14399999999978,103,934.351941747573,532.934951456311,1535.32524271845,956.63786407767,912.066019417476,543.579611650485,522.290291262136,1849.59223300971,1221.05825242718,0
1871.5648,-2.03955862805794e-08,-7.26983641883344e-08,-9.30939504688202e-08,1.97151285882903e-07,-5.0365565974549e-08,-5.03655659745642e-08,4.77281128717532e-08,-4.6048426407981e-08,1.67968646374569e-09,4.10115159940343e-09,5.63230136333885e-08,4.10115159902216e-09,7.14497871237089e-08,-7.96115807615445e-08,-8.16179363796816e-09,1.46649899113254e-07,-2.19875742460978e-07,-7.32258433478206e-08,-8.2690583862403e-08,-1.33502487261844e-07,-8.26905838625023e-08,9.72714450164118e-08,-4.04677311046371e-08,5.68037139117138e-08,1.67059171028205e-07,-7.3908587512314e-08,-7.39085875123965e-08,1.06413058097205e-07,-1.06413058097154e-07,-1.33488382007074e-08,2.27044114093438e-08,-1.23930301030569e-07,-1.01225889620845e-07,1.0575283586594e-08,-7.60760786005478e-08,-6.55007950134526e-08,1.23591927646667e-07,-1.90744873538446e-08,-1.90744873538559e-08,1.06517742158966e-08,,4.65371918503507e-08,-1.52831072626232e-07,3.8578267162945e-08,-1.14252805463238e-07,5.13368967268267e-08,-3.66378694726468e-08,-3.66378694728997e-08,-1.18540516950369e-08,1.1854051695117e-08,5.58133090477927e-08,0,1,0,6.24639999999999,102,937.04068627451,532.220098039216,1508.21078431373,963.709803921569,910.371568627451,547.091176470588,517.349019607843,1815.86274509804,1200.55882352941,0
1871.6672,-1.59679639487583e-08,-7.39670217006948e-08,-8.99349856493696e-08,2.05951332667837e-07,-4.89420972159785e-08,-4.89420972159962e-08,4.84359467992645e-08,-4.41975752801331e-08,4.23837151909666e-09,6.25756971711045e-09,5.8394842675663e-08,6.25756971671913e-09,7.38696918774761e-08,-8.3007544014275e-08,-9.13785213692882e-09,1.4523949873131e-07,-2.26131711393715e-07,-8.08922126625012e-08,-8.35968365545398e-08,-1.27209889753587e-07,-8.35968365546287e-08,9.21544503106695e-08,-3.87461582885e-08,5.34082920221184e-08,1.74876620570954e-07,-7.0263342084878e-08,-7.02633420849585e-08,9.6966001735438e-08,-9.69660017353931e-08,-2.31747175550899e-08,2.17604013999773e-09,-1.23500099035056e-07,-1.21324058894675e-07,-5.50260921158505e-09,-7.55272972793707e-08,-8.10299064904472e-08,1.34364168565815e-07,-1.64594546652648e-08,-1.64594546652693e-08,-4.36314763767307e-09,,3.37387750396036e-08,-1.71776787381292e-07,3.79276967547923e-08,-1.33849090626455e-07,4.50592976343612e-08,-3.63130420921551e-08,-3.63130420924008e-08,-1.28463749524772e-08,1.28463749525432e-08,5.88460117081477e-08,0,1,0,6.34879999999998,103,938.583009708738,531.397087378641,1503.65533980583,966.731067961165,910.434951456311,542.568932038835,520.225242718447,1804.45631067961,1202.85436893204,0
1871.7696,-1.11541753201722e-08,-7.51199076894475e-08,-8.62740830095462e-08,2.15484987422827e-07,-4.73605955374046e-08,-4.73605955374249e-08,4.91862172802898e-08,-4.22552569592967e-08,6.93096032094942e-09,7.99228098519982e-09,6.04386897957542e-08,7.99228098479716e-09,7.57365638814764e-08,-8.64844463230636e-08,-1.07478824417141e-08,1.44333403960295e-07,-2.32720625972183e-07,-8.83872220119843e-08,-8.42406933450538e-08,-1.20925420756274e-07,-8.42406933451317e-08,8.64866352837848e-08,-3.69952022749889e-08,4.94914330087548e-08,1.8277828864662e-07,-6.6690604027052e-08,-6.66906040271303e-08,8.74273429794716e-08,-8.74273429794318e-08,-3.34920432778371e-08,-1.81001379214406e-08,-1.22576160971837e-07,-1.40676298892892e-07,-2.16060335894026e-08,-7.54787174958829e-08,-9.70847510847695e-08,1.4451547603993e-07,-1.39571962120377e-08,-1.39571962120348e-08,-1.88537926996219e-08,,2.10862894163181e-08,-1.90357909681429e-07,3.74241529899466e-08,-1.52933756691441e-07,3.88716366670801e-08,-3.54651775645257e-08,-3.54651775647639e-08,-1.38680291755848e-08,1.38680291756359e-08,6.24622636002902e-08,0,0,0,6.45119999999997,102,936.641666666667,538.760294117647,1512.1862745098,964.112745098039,909.170588235294,549.593137254902,527.927450980392,1809.96078431373,1214.41176470588,0
1871.872,-6.48017171471984e-09,-7.60511843231625e-08,-8.25313560378188e-08,2.25539699399292e-07,-4.56745138274536e-08,-4.56745138274763e-08,5.00026356577743e-08,-4.02484778198339e-08,9.75415783788707e-09,9.26670839355395e-09,6.25430529464015e-08,9.26670839313901e-09,7.68101512371595e-08,-8.9907817049914e-08,-1.30976658128787e-08,1.44012274514792e-07,-2.39148405028278e-07,-9.51361305135804e-08,-8.46557712065051e-08,-1.15054830606929e-07,-8.46557712065717e-08,7.99962066351261e-08,-3.5188576045141e-08,4.48076305899544e-08,1.90310324744869e-07,-6.32413019182532e-08,-6.32413019183295e-08,7.79842182149214e-08,-7.79842182148869e-08,-4.39974369680383e-08,-3.82372347567797e-08,-1.20668856461336e-07,-1.58906091217727e-07,-3.74172728855909e-08,-7.58073294813077e-08,-1.13224602366374e-07,1.53836589510658e-07,-1.15439783438969e-08,-1.1543978343887e-08,-3.24463654300889e-08,,8.95094614116169e-09,-2.08075498698331e-07,3.70360366971034e-08,-1.71039462001191e-07,3.26359367189076e-08,-3.41553784032688e-08,-3.41553784034995e-08,-1.49755558526658e-08,1.4975555852702e-08,6.66632236283836e-08,0,0,0,6.55359999999996,102,936.290196078431,534.752450980392,1530.62254901961,961.829411764706,910.750980392157,545.385294117647,524.119607843137,1836.14705882353,1225.09803921569,0
1871.9744,-2.43640675214318e-09,-7.66748815609869e-08,-7.91112883130761e-08,2.35897915851455e-07,-4.39617840930938e-08,-4.39617840931188e-08,5.08900691942501e-08,-3.82284877269962e-08,1.26615814671907e-08,1.00665733868033e-08,6.48125927696678e-08,1.00665733863752e-08,7.68477029173465e-08,-9.3164289203895e-08,-1.63165862866706e-08,1.44471511930335e-07,-2.44976634855847e-07,-1.00505122925605e-07,-8.47517740196608e-08,-1.1002126017058e-07,-8.47517740197158e-08,7.25996719027299e-08,-3.3343941238662e-08,3.92557306640472e-08,1.97095358429983e-07,-5.99652776485892e-08,-5.99652776486636e-08,6.88713801359137e-08,-6.88713801358845e-08,-5.44051952858369e-08,-5.83307056569312e-08,-1.17514435698007e-07,-1.75845141354547e-07,-5.24763254321901e-08,-7.63475772761157e-08,-1.28823902707773e-07,1.62135344379766e-07,-9.18117296573194e-09,-9.18117296571475e-09,-4.47966201809138e-08,,-2.31600835200755e-09,-2.24423001706875e-07,3.66912727847948e-08,-1.87731728922048e-07,2.61878722215769e-08,-3.24737029888613e-08,-3.24737029890852e-08,-1.62161645502711e-08,1.62161645502924e-08,7.13688925226316e-08,0,0,0,6.65599999999995,103,937.154368932039,533.565533980582,1545.91262135922,963.885436893204,910.423300970874,544.842718446602,522.288349514563,1858.61165048544,1233.21359223301,0
1872.0768,5.8548566092807e-10,-7.69499023053584e-08,-7.63644166443853e-08,2.46348768219509e-07,-4.23260375027831e-08,-4.23260375028101e-08,5.18318665827397e-08,-3.62777461613724e-08,1.55541204212937e-08,1.03811632390002e-08,6.73394120084655e-08,1.03811632385589e-08,7.56441459735758e-08,-9.61792056453368e-08,-2.0535059671881e-08,1.45997609558657e-07,-2.49891942550436e-07,-1.0389433299187e-07,-8.43296511948646e-08,-1.0620374844899e-07,-8.43296511949073e-08,6.44347682237886e-08,-3.15170156634912e-08,3.29177525602863e-08,2.02869066203279e-07,-5.69077578801318e-08,-5.69077578802041e-08,6.03421329334096e-08,-6.03421329333858e-08,-6.44526830126679e-08,-7.83862087398066e-08,-1.1311909817773e-07,-1.91505306917141e-07,-6.62467388311387e-08,-7.69209830620065e-08,-1.43167721892602e-07,1.69257359273187e-07,-6.8312492502527e-09,-6.83124925022808e-09,-5.56322712174674e-08,,-1.2414251883456e-08,-2.38940777725062e-07,3.62928758072009e-08,-2.02647901917834e-07,1.93807629652637e-08,-3.05171913820628e-08,-3.05171913822806e-08,-1.76091425285796e-08,1.76091425285865e-08,7.64443991191717e-08,0,0,0,6.75839999999994,102,947.269117647059,529.355392156863,1550.02450980392,971.926470588235,922.611764705882,541.276470588235,517.43431372549,1870.36274509804,1229.6862745098,0
1872.1792,2.33562330548438e-09,-7.68896494270653e-08,-7.45540261215437e-08,2.56659824085672e-07,-4.08877919888227e-08,-4.08877919888513e-08,5.27898677549495e-08,-3.45021530143452e-08,1.82877147405203e-08,1.0168573014221e-08,7.01872786816236e-08,1.01685730137646e-08,7.30722727808105e-08,-9.89133891610092e-08,-2.58411163803173e-08,1.48919803967998e-07,-2.5373399242902e-07,-1.04814188461111e-07,-8.31092967301582e-08,-1.03876257197473e-07,-8.31092967301886e-08,5.58512815415253e-08,-2.97741984918807e-08,2.60770830496426e-08,2.07466307764696e-07,-5.41034490966715e-08,-5.41034490967418e-08,5.26383301024294e-08,-5.26383301024109e-08,-7.38939527722376e-08,-9.82521478194182e-08,-1.07757183397042e-07,-2.06009331216062e-07,-7.81873708121434e-08,-7.73574990723071e-08,-1.55544869883897e-07,1.75098262723023e-07,-4.46588121495826e-09,-4.46588121492656e-09,-6.47903927815153e-08,,-2.11147149381356e-08,-2.51273504187484e-07,3.57410828535558e-08,-2.15532421333907e-07,1.21193902661033e-08,-2.83688253391398e-08,-2.83688253393524e-08,-1.91373793788555e-08,1.91373793788493e-08,8.17277919134455e-08,0,0,0,6.86079999999993,103,947.672330097087,534.406796116505,1550.03398058252,973.15145631068,922.193203883495,544.941747572816,523.871844660194,1877.92233009709,1222.14563106796,0
1872.2816,2.71663174697636e-09,-7.65558853878007e-08,-7.38392536407941e-08,2.66536570903301e-07,-3.9769919556642e-08,-3.9769919556672e-08,5.37105142472145e-08,-3.30133674226409e-08,2.06971468244791e-08,9.34610089975344e-09,7.33859284121177e-08,9.34610089928196e-09,6.91088785326854e-08,-1.01343363410125e-07,-3.22344848775573e-08,1.5355463050213e-07,-2.5648172991883e-07,-1.02927099416786e-07,-8.07652225044956e-08,-1.03169620475364e-07,-8.07652225045135e-08,4.73645539376804e-08,-2.81607163652602e-08,1.92038375724263e-08,2.10779850724828e-07,-5.15705667422488e-08,-5.15705667423172e-08,4.59669458604336e-08,-4.59669458604205e-08,-8.24914091744892e-08,-1.17593038814756e-07,-1.01919701353074e-07,-2.19512740167428e-07,-8.78093878103485e-08,-7.75056153065924e-08,-1.65315003116375e-07,1.79603844483798e-07,-2.06384950296821e-09,-2.06384950292967e-09,-7.22385689879307e-08,,-2.8274239678209e-08,-2.61212423659901e-07,3.49536473589161e-08,-2.2625877630097e-07,4.3732750322719e-09,-2.60840335476526e-08,-2.60840335478612e-08,-2.07556653914251e-08,2.07556653914072e-08,8.70497206427903e-08,0,0,0,6.96319999999992,102,940.601960784314,537.191176470588,1557.22549019608,963.322549019608,917.88137254902,551.325490196079,523.056862745098,1889.38235294118,1225.06862745098,0
1872.384,1.76913186229719e-09,-7.60430994085728e-08,-7.42739675462512e-08,2.75611569638025e-07,-3.90827253107419e-08,-3.90827253107728e-08,5.4537836285923e-08,-3.19113314649229e-08,2.26265048208958e-08,7.82097481277715e-09,7.69284624255207e-08,7.82097481229032e-09,6.3843399288794e-08,-1.03439827460296e-07,-3.95964281716195e-08,1.60156208389725e-07,-2.58216412801537e-07,-9.8060204411896e-08,-7.69729677891991e-08,-1.04067362114313e-07,-7.69729677892046e-08,3.9587282243832e-08,-2.66826096285368e-08,1.29046726153084e-08,2.12727033501922e-07,-4.93076216213162e-08,-4.93076216213827e-08,4.04827567360181e-08,-4.04827567360111e-08,-9.0014305475957e-08,-1.35931034999014e-07,-9.62241805859768e-08,-2.32155215584584e-07,-9.47148253431266e-08,-7.72379217877276e-08,-1.71952747130276e-07,1.82760395386349e-07,3.94190074045512e-10,3.94190074090526e-10,-7.80732330963123e-08,,-3.38481441258766e-08,-2.6870811596198e-07,3.38780224816002e-08,-2.34830093480372e-07,-3.82730902144359e-09,-2.36881104916183e-08,-2.36881104918241e-08,-2.24093042725145e-08,2.24093042724868e-08,9.22428132509181e-08,0,0,0,7.0655999999999,102,936.012254901961,531.301960784314,1570.44117647059,958.36862745098,913.655882352941,546.167647058824,516.436274509804,1903.72549019608,1237.1568627451,0
1872.4864,-3.52162064629839e-10,-7.54597162196647e-08,-7.58118782842745e-08,2.83484233332088e-07,-3.89099860556793e-08,-3.89099860557105e-08,5.5228598562019e-08,-3.12730904381578e-08,2.39555081237475e-08,5.53690641361279e-09,8.07697145196014e-08,5.53690641311134e-09,5.74720334155632e-08,-1.05158586461065e-07,-4.768655304562e-08,1.68876629479285e-07,-2.590823248294e-07,-9.02056953501962e-08,-7.14694879150687e-08,-1.06428302874729e-07,-7.14694879150622e-08,3.31504550859801e-08,-2.53064297539516e-08,7.84402533204746e-09,2.132427330039e-07,-4.72953431716913e-08,-4.72953431717563e-08,3.62745078539412e-08,-3.62745078539405e-08,-9.62493242537653e-08,-1.52745565706279e-07,-9.13088673691534e-08,-2.44054433075022e-07,-9.86244441383123e-08,-7.64590760111592e-08,-1.75083520148881e-07,1.84583205393931e-07,2.92517576512317e-09,2.92517576517431e-09,-8.24953844912213e-08,,-3.78965127244862e-08,-2.73852668596776e-07,3.24940873716107e-08,-2.41358581225164e-07,-1.24019293531974e-08,-2.11834970596754e-08,-2.11834970598797e-08,-2.40493639677426e-08,2.40493639677073e-08,9.71449942881249e-08,0,0,0,7.16799999999989,103,937.91213592233,537.453398058253,1586.54854368932,960.547572815534,915.276699029126,554.946601941748,519.960194174757,1920.69902912621,1252.39805825243,0
1872.5888,-3.40075912885729e-09,-7.49091263879154e-08,-7.83098855167557e-08,2.89793631322747e-07,-3.92937775034254e-08,-3.92937775034564e-08,5.57633477882307e-08,-3.11455498249299e-08,2.46177979631791e-08,2.5011668370555e-09,8.48301361783335e-08,2.50116683654083e-09,5.02791668185483e-08,-1.06447986326673e-07,-5.61688195082433e-08,1.79732648462339e-07,-2.59254933763223e-07,-7.95222853009623e-08,-6.4119477986934e-08,-1.10015149515088e-07,-6.4119477986916e-08,2.8617983664977e-08,-2.39682686828609e-08,4.64971498213923e-09,2.12289400111532e-07,-4.55039348104118e-08,-4.55039348104754e-08,3.33552916044046e-08,-3.33552916044101e-08,-1.01021804738914e-07,-1.67578750961236e-07,-8.7741479278377e-08,-2.55320230239199e-07,-9.9399938909618e-08,-7.51162915839157e-08,-1.74516230492929e-07,1.85111365067142e-07,5.53556576992565e-09,5.53556576998285e-09,-8.57725821765008e-08,,-4.05766771168078e-08,-2.76844374025579e-07,3.08101700417481e-08,-2.46034203983838e-07,-2.12294983131832e-08,-1.85622595464847e-08,-1.85622595466887e-08,-2.56365428088502e-08,2.56365428088095e-08,1.01602660634447e-07,0,0,0,7.27039999999988,102,937.119607843137,533.112745098039,1590.90196078431,958.045098039216,916.194117647059,550.390196078431,515.835294117647,1924.51960784314,1257.28431372549,0
1872.6912,-7.05941717567369e-09,-7.4471286506511e-08,-8.15307036821695e-08,2.94288530048886e-07,-4.02178851248456e-08,-4.0217885124876e-08,5.61513510651556e-08,-3.15373026097006e-08,2.46140484553262e-08,-1.21640121996818e-09,8.9009277762727e-08,-1.21640122049377e-09,4.26057171236964e-08,-1.07265444093898e-07,-6.46597269703216e-08,1.92573645469803e-07,-2.58912353028759e-07,-6.63387075590301e-08,-5.49681127371463e-08,-1.14515635553125e-07,-5.49681127371175e-08,2.64026216483924e-08,-2.25841219430292e-08,3.81849970538911e-09,2.09865671821914e-07,-4.39025772768162e-08,-4.39025772768785e-08,3.16607296939197e-08,-3.16607296939313e-08,-1.04221068569015e-07,-1.80101057991201e-07,-8.59624797215495e-08,-2.66063537712333e-07,-9.70549514767991e-08,-7.3206184769224e-08,-1.70261136245406e-07,1.84409608470756e-07,8.2123589526247e-09,8.21235895268792e-09,-8.81989602162729e-08,,-4.21194571675804e-08,-2.77949338311502e-07,2.8856022706475e-08,-2.49093315605042e-07,-3.01571826959385e-08,-1.58186316549688e-08,-1.58186316551738e-08,-2.71364960957494e-08,2.71364960957054e-08,1.05475504323545e-07,0,1,0,7.37279999999987,103,936.126213592233,534.46359223301,1589.41262135922,955.776699029126,916.47572815534,547.292233009709,521.634951456311,1921.02912621359,1257.79611650485,0
1872.7936,-1.096645095104e-08,-7.41865336291741e-08,-8.51529845801995e-08,2.96870662205472e-07,-4.15954918328008e-08,-4.15954918328301e-08,5.64314635233802e-08,-3.24098599037442e-08,2.40216036195018e-08,-5.4883815623838e-09,9.32059003031546e-08,-5.48838156291817e-09,3.48063701923241e-08,-1.07591265876139e-07,-7.27848956839373e-08,2.07055540303486e-07,-2.58203111118993e-07,-5.11475708155779e-08,-4.42632778561696e-08,-1.19564734189458e-07,-4.42632778561305e-08,2.66987593720789e-08,-2.10602526818475e-08,5.63850669025882e-09,2.06008193398708e-07,-4.24667818723639e-08,-4.24667818724251e-08,3.10572721320437e-08,-3.10572721320608e-08,-1.05822350531749e-07,-1.90140990647929e-07,-8.62600212308549e-08,-2.76401011878364e-07,-9.17451438189717e-08,-7.07721584271545e-08,-1.62517302245496e-07,1.82569277139281e-07,1.09214129363243e-08,1.09214129363932e-08,-9.00596146959283e-08,,-4.27947703463838e-08,-2.7746470497027e-07,2.66754362152207e-08,-2.50789268755072e-07,-3.90134563550253e-08,-1.29581751232959e-08,-1.29581751235028e-08,-2.8515885264632e-08,2.85158852645868e-08,1.08641151539816e-07,0,1,0,7.47519999999986,102,935.595098039216,534.763725490196,1579.47549019608,953.98431372549,917.205882352941,541.362745098039,528.164705882353,1906.25490196078,1252.69607843137,0
1872.896,-1.47502141482987e-08,-7.40456388087514e-08,-8.87958529570347e-08,2.97608766889161e-07,-4.32700179564489e-08,-4.32700179564765e-08,5.6670233010989e-08,-3.36741004768589e-08,2.29961325339921e-08,-1.01150449510531e-08,9.73371647570455e-08,-1.01150449515929e-08,2.72028803593481e-08,-1.07432915004607e-07,-8.02300346453828e-08,2.22639928665715e-07,-2.57215711521953e-07,-3.45757828563061e-08,-3.24430953784472e-08,-1.24785265634366e-07,-3.24430953783987e-08,2.94509824011215e-08,-1.93059640580646e-08,1.01450183430841e-08,2.00794814333799e-07,-4.11813276075509e-08,-4.11813276076114e-08,3.1360368959242e-08,-3.13603689592645e-08,-1.05901186665545e-07,-1.97707862692134e-07,-8.87623436275131e-08,-2.86470206319224e-07,-8.37349582292749e-08,-6.78928693282886e-08,-1.51627827556922e-07,1.79700048522653e-07,1.36152909558255e-08,1.36152909558994e-08,-9.16011714867635e-08,,-4.28760273008919e-08,-2.75681992027389e-07,2.43197638327818e-08,-2.51362228194636e-07,-4.76264274600127e-08,-1.00015439608058e-08,-1.00015439610157e-08,-2.97473080283601e-08,2.97473080283157e-08,1.10999912713807e-07,0,1,0,7.57759999999985,102,934.321568627451,538.402941176471,1566.82352941176,949.547058823529,919.096078431373,541.812745098039,534.993137254902,1890.00980392157,1243.63725490196,0
1872.9984,-1.8066603977207e-08,-7.39906082600896e-08,-9.20572122372799e-08,2.96734158097121e-07,-4.50336882354646e-08,-4.50336882354905e-08,5.69556073739737e-08,-3.51975548244198e-08,2.17580525494136e-08,-1.48052301869841e-08,1.01352110863131e-07,-1.48052301875264e-08,2.00441554059324e-08,-1.06821351309848e-07,-8.67771959040419e-08,2.38639802672061e-07,-2.55967045186768e-07,-1.73272425147726e-08,-2.00943017946794e-08,-1.2984742794837e-07,-2.00943017946229e-08,3.4367543934523e-08,-1.72489206000667e-08,1.71186233344822e-08,1.94354113955215e-07,-4.00391401397487e-08,-4.00391401398085e-08,3.23610930172378e-08,-3.23610930172654e-08,-1.04643067924067e-07,-2.0301039456011e-07,-9.34377889355033e-08,-2.96448183495188e-07,-7.33499564808076e-08,-6.46679568198949e-08,-1.38017913300051e-07,1.75914656821702e-07,1.62450784348798e-08,1.62450784349588e-08,-9.30105482133058e-08,,-4.26099386174258e-08,-2.72852039276039e-07,2.18426703403028e-08,-2.51009368935772e-07,-5.58413357169866e-08,-6.98241313613745e-09,-6.98241313635114e-09,-3.08218217433893e-08,3.08218217433469e-08,1.12482550792001e-07,0,0,0,7.67999999999984,103,935.316019417476,540.633980582524,1552.69902912621,949.6,921.032038834951,542.482524271845,538.785436893204,1874.59223300971,1230.80582524272,0
1873.1008,-2.06317348281408e-08,-7.39268180578179e-08,-9.45585528859399e-08,2.94625887370639e-07,-4.66585204892139e-08,-4.66585204892378e-08,5.73842182528635e-08,-3.68218775560444e-08,2.05623406966783e-08,-1.91944864068665e-08,1.05239949147553e-07,-1.91944864074076e-08,1.34814623557358e-08,-1.05804431424816e-07,-9.23229690692098e-08,2.54311378510762e-07,-2.54418168657046e-07,-1.06790146348839e-10,-7.89021309494687e-09,-1.34524734378684e-07,-7.89021309488297e-09,4.09687694564102e-08,-1.48481349319632e-08,2.61206345244706e-08,1.86872534086934e-07,-3.90374051565164e-08,-3.90374051565762e-08,3.38577100833869e-08,-3.38577100834191e-08,-1.0235390297926e-07,-2.06440091997916e-07,-1.00100123403362e-07,-3.06540215400852e-07,-6.09301564537563e-08,-6.12068937441223e-08,-1.2213705019722e-07,1.71318497974726e-07,1.87683831921906e-08,1.87683831922741e-08,-9.44040441722208e-08,,-4.21935746468084e-08,-2.69159015862742e-07,1.92971233440888e-08,-2.49861892518694e-07,-6.35290366432315e-08,-3.94122708574071e-09,-3.94122708595849e-09,-3.17578952995815e-08,3.17578952995421e-08,1.13061358876977e-07,0,0,0,7.78239999999983,102,937.450980392157,539.387745098039,1544.04901960784,949.258823529412,925.643137254902,545.237254901961,533.538235294118,1865.03921568627,1223.05882352941,0
1873.2032,-2.22453653571733e-08,-7.3740967706591e-08,-9.59863330637429e-08,2.91780598361781e-07,-4.79276071465246e-08,-4.79276071465464e-08,5.80444744888657e-08,-3.83829505120539e-08,1.96615239766714e-08,-2.29057323729134e-08,1.09033947943867e-07,-2.29057323734502e-08,7.55969081638627e-09,-1.0444002845428e-07,-9.68803376380247e-08,2.68961354653619e-07,-2.52505327967405e-07,1.64560266861519e-08,3.48172132322002e-09,-1.38719957915553e-07,3.48172132329007e-09,4.86488998747205e-08,-1.20992129087576e-08,3.65496869659834e-08,1.78584816132246e-07,-3.81735097859697e-08,-3.81735097860298e-08,3.56846637926264e-08,-3.56846637926633e-08,-9.94673378030473e-08,-2.08498204937854e-07,-1.08421371646685e-07,-3.16919576584112e-07,-4.67989685961299e-08,-5.76226411779468e-08,-1.04421609773412e-07,1.66011799536707e-07,2.1151213114333e-08,2.11512131144206e-08,-9.58262938152215e-08,,-4.17597037645329e-08,-2.64712610145595e-07,1.67359221468803e-08,-2.4797668799876e-07,-7.05845169656348e-08,-9.18020648132059e-10,-9.18020648354251e-10,-3.25982012134446e-08,3.25982012134088e-08,1.12760464589687e-07,0,0,0,7.88479999999981,103,939.238399509568,538.221192604697,1540.31933096222,949.387383447083,929.089415572054,536.792223397097,539.650161812298,1867.03672017687,1213.60194174757,0.281553398058252
1873.3056,-2.28050665484306e-08,-7.33175646832614e-08,-9.61226312316676e-08,2.88756791538298e-07,-4.86582832938697e-08,-4.86582832938892e-08,5.90036267546577e-08,-3.97257142926565e-08,1.92779124618622e-08,-2.55999439845578e-08,1.12808170258905e-07,-2.55999439850883e-08,2.22136803100497e-09,-1.02788546234302e-07,-1.00567178203431e-07,2.82030618981977e-07,-2.50166242417836e-07,3.18643765640798e-08,1.33922833053534e-08,-1.42453188417792e-07,1.33922833054288e-08,5.67341455543975e-08,-9.03262516418099e-09,4.77015203902336e-08,1.69742065435599e-07,-3.74448536923225e-08,-3.74448536923833e-08,3.77294343464816e-08,-3.77294343465227e-08,-9.65311571559183e-08,-2.09689434032139e-07,-1.17952348314929e-07,-3.27641782346642e-07,-3.12537678559854e-08,-5.40280533239522e-08,-8.52818211792687e-08,1.60099217118659e-07,2.33683128941445e-08,2.33683128942358e-08,-9.72546099539306e-08,,-4.13730573527494e-08,-2.59561525233447e-07,1.4214251939746e-08,-2.4534727329375e-07,-7.692429743623e-08,2.05201673797244e-09,2.05201673774591e-09,-3.33984997244031e-08,3.33984997243708e-08,1.11660059529067e-07,0,0,0,7.9871999999998,102,947.271793098427,531.622957920792,1552.67574257426,958.695792079208,935.847794117647,528.258415841584,534.9875,1892.35148514852,1213,0.725490196078431
1873.408,-2.23140361960838e-08,-7.25516192151141e-08,-9.48656554111704e-08,2.86096439900705e-07,-4.87187762961954e-08,-4.87187762962131e-08,6.03072367898756e-08,-4.07126270240782e-08,1.95946097656603e-08,-2.69648200976725e-08,1.166650193962e-07,-2.69648200981952e-08,-2.67775231613654e-09,-1.00904030451411e-07,-1.03581782767683e-07,2.93136773787999e-07,-2.47352019454262e-07,4.57847543336777e-08,2.13335817696427e-08,-1.45828959837488e-07,2.13335817697231e-08,6.45332557926912e-08,-5.71153666794859e-09,5.88217191247564e-08,1.60567982299603e-07,-3.68547250211944e-08,-3.68547250212562e-08,3.99325875234877e-08,-3.99325875235327e-08,-9.41547302327238e-08,-2.10435886722095e-07,-1.28146600821316e-07,-3.38582487542986e-07,-1.45724550910537e-08,-5.0532024295204e-08,-6.5104479385586e-08,1.53693881564891e-07,2.54067273147626e-08,2.54067273148571e-08,-9.86043954457169e-08,,-4.10399548876679e-08,-2.53719254466655e-07,1.17897725945444e-08,-2.41929481872162e-07,-8.24925299422868e-08,4.93834621384856e-09,4.93834621361806e-09,-3.42200199615606e-08,3.42200199615316e-08,1.09891286611951e-07,0,0,0,8.08959999999979,102,949.644332887008,563.002945625445,1533.99199184624,964.079203067366,935.209462706651,563.976887982916,562.029003267974,1871.53300330033,1196.45098039216,0
1873.5104,-2.08828941927206e-08,-7.13609044664133e-08,-9.22437986591035e-08,2.8424665322288e-07,-4.80438317355021e-08,-4.80438317355182e-08,6.19911407279356e-08,-4.12310292236646e-08,2.07601115041362e-08,-2.66490567159749e-08,1.20717185699481e-07,-2.66490567164899e-08,-7.33995793161172e-09,-9.88262042018488e-08,-1.06166162133598e-07,3.02083123774173e-07,-2.44028976751633e-07,5.80541470224838e-08,2.69647391415881e-08,-1.49008819232491e-07,2.69647391416728e-08,7.1389335220465e-08,-2.23445101404067e-09,6.91548842064352e-08,1.5122618689336e-07,-3.64220514035367e-08,-3.64220514035996e-08,4.22753825614802e-08,-4.22753825615282e-08,-9.29182907911849e-08,-2.11053100752708e-07,-1.38387645361022e-07,-3.49440746113305e-07,2.97410981959106e-09,-4.72355178191115e-08,-4.42614079988475e-08,1.46906415764395e-07,2.72705318678451e-08,2.72705318679428e-08,-9.973892217458e-08,,-4.07305849370687e-08,-2.47185566682634e-07,9.51731831268115e-09,-2.37668248370006e-07,-8.72746274289148e-08,7.71182038698546e-09,7.71182038675144e-09,-3.5129899052413e-08,3.51298990523864e-08,1.07622235464447e-07,0,0,0,8.19199999999978,103,948.331067961165,575.716504854369,1507.50970873786,960.73786407767,935.92427184466,578.523300970874,572.909708737864,1829.18446601942,1185.83495145631,0
1873.6128,-1.87184990595028e-08,-6.97002991426443e-08,-8.84187982021139e-08,2.83506579551785e-07,-4.66484480762173e-08,-4.6648448076232e-08,6.40965539148668e-08,-4.1203393198217e-08,2.28931607165169e-08,-2.42044973958542e-08,1.25070942429368e-07,-2.42044973963615e-08,-1.19830175141484e-08,-9.65784456424616e-08,-1.08561463156748e-07,3.08846549111943e-07,-2.40180108154486e-07,6.86664409574033e-08,3.01344476644761e-08,-1.52199124703617e-07,3.01344476645647e-08,7.67404576367213e-08,1.25970547466784e-09,7.80001631113978e-08,1.41813850833834e-07,-3.61896637007014e-08,-3.61896637007659e-08,4.47626228981174e-08,-4.47626228981681e-08,-9.32680509036603e-08,-2.11783094124197e-07,-1.48027643615683e-07,-3.59810737739454e-07,2.11102355597973e-08,-4.42313151451597e-08,-2.31210795846893e-08,1.39821902555453e-07,2.89798233712367e-08,2.89798233713372e-08,-1.00490836952563e-07,,-4.04061513286467e-08,-2.39954521142068e-07,7.44073112774525e-09,-2.32513790014377e-07,-9.13058896930899e-08,1.03419126003723e-08,1.03419126001356e-08,-3.62023540989473e-08,3.6202354098922e-08,1.05038677349752e-07,0,0,0,8.2944,102,939.657843137255,537.862254901961,1498.97058823529,948.43431372549,930.88137254902,537.797058823529,537.927450980392,1814.00980392157,1183.93137254902,0
1873.7152,-1.60926443128424e-08,-6.75743024440122e-08,-8.36669467568188e-08,2.84006408007307e-07,-4.46312376843692e-08,-4.46312376843828e-08,6.66771615651819e-08,-4.05975125077737e-08,2.60796490572766e-08,-1.91014249905171e-08,1.29815037471949e-07,-1.91014249910169e-08,-1.67889002064e-08,-9.41735726029441e-08,-1.10962472809483e-07,3.13547668568249e-07,-2.35811636000105e-07,7.77360325680925e-08,3.08807393927916e-08,-1.55638868249107e-07,3.0880739392884e-08,8.01809799801417e-08,4.59430899818791e-09,8.47752889783371e-08,1.32373760201848e-07,-3.62254623112803e-08,-3.62254623113462e-08,4.74044850810091e-08,-4.74044850810622e-08,-9.54287653074051e-08,-2.12837536327144e-07,-1.56444267296658e-07,-3.69281803623377e-07,3.95470048671532e-08,-4.16092350893964e-08,-2.06223022157096e-09,1.32478797819921e-07,3.0560811454503e-08,3.05608114546058e-08,-1.0069422136278e-07,,-4.00368280838341e-08,-2.32015226725994e-07,5.58799483057583e-09,-2.26427231895473e-07,-9.46638394129351e-08,1.27968755664893e-08,1.27968755662506e-08,-3.75101146227885e-08,3.75101146227628e-08,1.02323436417057e-07,0,0,0,8.39679999999999,103,940.48786407767,537.765048543689,1509.17961165049,949.839805825243,931.135922330097,540.111650485437,535.418446601942,1820.66019417476,1197.69902912621,0
1873.8176,-1.32947647058349e-08,-6.50403074526838e-08,-7.83350721584805e-08,2.85706708679929e-07,-4.21598465632199e-08,-4.21598465632322e-08,6.97923203385498e-08,-3.943034971188e-08,3.03619706265389e-08,-1.08373558167614e-08,1.35014336856854e-07,-1.08373558172551e-08,-2.1857923876853e-08,-9.16242698124325e-08,-1.13482193689425e-07,3.16403917978389e-07,-2.30962674252498e-07,8.5441243725842e-08,2.94125305175885e-08,-1.59567068087183e-07,2.94125305176843e-08,8.15046924389788e-08,7.57503477612633e-09,8.90797272151127e-08,1.22907388949585e-07,-3.66142252616555e-08,-3.6614225261723e-08,5.01988975843565e-08,-5.01988975844111e-08,-9.93536685103579e-08,-2.14410210746226e-07,-1.63111222735874e-07,-3.77521433481674e-07,5.79788491187904e-08,-3.9462747990853e-08,1.85161011286086e-08,1.24864476866243e-07,3.20310171203936e-08,3.20310171204988e-08,-1.00216119016275e-07,,-3.96011960066779e-08,-2.2335963347574e-07,3.97390433799777e-09,-2.19385729137797e-07,-9.74442429390019e-08,1.50462091954314e-08,1.50462091951913e-08,-3.91030881584482e-08,3.91030881584209e-08,9.96369872800709e-08,0,0,0,8.49919999999997,102,944.017647058824,538.10637254902,1494,953.2,934.835294117647,541.837254901961,534.375490196079,1802.06862745098,1185.93137254902,0
1873.92,-1.05842993122526e-08,-6.21996664629113e-08,-7.27839657751234e-08,2.88401823142072e-07,-3.94396687055033e-08,-3.94396687055148e-08,7.3487897778502e-08,-3.77629179634821e-08,3.57249798148891e-08,9.00027433346457e-10,1.40704779391121e-07,9.00027432855919e-10,-2.71856429476265e-08,-8.89537063148669e-08,-1.16139349262633e-07,3.17673027587899e-07,-2.25712010960764e-07,9.19610166270895e-08,2.60772747176507e-08,-1.64167522299434e-07,2.607727471775e-08,8.07163169286264e-08,1.00250457998589e-08,9.07413627284937e-08,1.1338195657578e-07,-3.74428139309486e-08,-3.74428139310177e-08,5.31177437150311e-08,-5.3117743715087e-08,-1.04715632903616e-07,-2.16657391885069e-07,-1.67665607415262e-07,-3.84322999299903e-07,7.60852796994343e-08,-3.78905707947353e-08,3.81947089053691e-08,1.16933896766287e-07,3.33865969609022e-08,3.33865969610093e-08,-9.89767026595734e-08,,-3.90711246798063e-08,-2.14006313212033e-07,2.6094142691629e-09,-2.11396898942925e-07,-9.97301862055358e-08,1.70621517426756e-08,1.70621517424346e-08,-4.09807134286266e-08,4.0980713428597e-08,9.71017182751484e-08,0,1,0,8.60159999999996,102,945.807352941176,533.272549019608,1466.56862745098,954.46568627451,937.149019607843,544.104901960784,522.440196078432,1766.73529411765,1166.40196078431,0
1874.0224,-8.15986131191646e-09,-5.91806896075203e-08,-6.73405509193938e-08,2.91719894222735e-07,-3.66755334863795e-08,-3.66755334863902e-08,7.77733036923503e-08,-3.56880416681364e-08,4.20852620240828e-08,1.60978813384025e-08,1.46886853747862e-07,1.60978813379149e-08,-3.26702270070349e-08,-8.62014461651276e-08,-1.18871673172302e-07,3.17598665620044e-07,-2.20174653294255e-07,9.74240123257468e-08,2.13200504582507e-08,-1.695094640264e-07,2.13200504583535e-08,7.80106392529664e-08,1.18210441887448e-08,8.98316834417208e-08,1.03735164967673e-07,-3.8782898301392e-08,-3.87828983014629e-08,5.609960967592e-08,-5.60996096759763e-08,-1.10935331979473e-07,-2.19668974892585e-07,-1.69950232150903e-07,-3.89619207043058e-07,9.35381894472207e-08,-3.69886976582139e-08,5.65494917896756e-08,1.08644732926991e-07,3.45978641227145e-08,3.45978641228232e-08,-9.69553929562033e-08,,-3.83950792387532e-08,-2.040343368197e-07,1.51300305076924e-09,-2.02521333768986e-07,-1.01566718000121e-07,1.88180022036252e-08,1.88180022033832e-08,-4.30704903077327e-08,4.30704903077003e-08,9.47918365821177e-08,0,1,0,8.70399999999995,103,944.528640776699,530.503883495146,1453.5,952.669902912622,936.387378640777,542.968932038835,518.038834951456,1745.52427184466,1161.47572815534,0
1874.1248,-6.15359599359721e-09,-5.6120041286852e-08,-6.22736372804033e-08,2.95129425693989e-07,-3.40388516158478e-08,-3.40388516158577e-08,8.26071252186411e-08,-3.3314345620658e-08,4.92927795978517e-08,3.43911710751296e-08,1.53518212035932e-07,3.43911710746436e-08,-3.81433108413513e-08,-8.34192415312776e-08,-1.21562552372768e-07,3.16366690743783e-07,-2.14481427139884e-07,1.01885263603861e-07,1.56426936613646e-08,-1.7550983931133e-07,1.56426936614706e-08,7.37309787652484e-08,1.29133492469411e-08,8.66443280122004e-08,9.38844170820525e-08,-4.06730978352376e-08,-4.06730978353103e-08,5.90485703800962e-08,-5.90485703801533e-08,-1.17240260188796e-07,-2.23454711707164e-07,-1.70016743160133e-07,-3.93471454866864e-07,1.10017702758945e-07,-3.68321091630817e-08,7.3185593596531e-08,9.99890879175084e-08,3.56164882132768e-08,3.56164882133863e-08,-9.41886974395683e-08,,-3.74927168120708e-08,-1.93607602376494e-07,7.18026818920706e-10,-1.92889575557628e-07,-1.02952673868619e-07,2.02858899941054e-08,2.02858899938625e-08,-4.52273083064848e-08,4.52273083064501e-08,9.27286480638855e-08,0,1,0,8.80639999999994,102,944.601470588235,530.740196078431,1456.23529411765,951.790196078431,937.412745098039,546.322549019608,515.157843137255,1744.95098039216,1167.51960784314,0
1874.2272,-4.64602900413233e-09,-5.31470596263137e-08,-5.77930886303965e-08,2.97977712745094e-07,-3.1650072893233e-08,-3.1650072893242e-08,8.79003468949992e-08,-3.07510964560096e-08,5.71492504388583e-08,5.51609491123551e-08,1.60510920731812e-07,5.51609491118711e-08,-4.34087828000535e-08,-8.06560997153837e-08,-1.24064882515576e-07,3.14078170051046e-07,-2.08743027650177e-07,1.05335142400836e-07,9.57056253205927e-09,-1.81937042180164e-07,9.57056253216818e-09,6.83237441104442e-08,1.33227630404983e-08,8.1646507150954e-08,8.37476098242998e-08,-4.31025009870099e-08,-4.31025009870844e-08,6.18372374040113e-08,-6.18372374040687e-08,-1.22748852038693e-07,-2.27965519585407e-07,-1.68091268099821e-07,-3.96056787684793e-07,1.25241106489241e-07,-3.74516170507929e-08,8.77894894391128e-08,9.10006098481891e-08,3.63924787810203e-08,3.63924787811306e-08,-9.07657722286043e-08,,-3.62664082536578e-08,-1.82969403288211e-07,2.7088458124672e-10,-1.82698518707019e-07,-1.03855242636662e-07,2.14387936044264e-08,2.14387936041821e-08,-4.72614414417244e-08,4.72614414416882e-08,9.08795335007032e-08,0,0,0,8.90879999999993,103,945.084951456311,534.263106796117,1459.22815533981,951.739805825243,938.430097087379,547.144660194175,521.381553398058,1744.81553398058,1173.64077669903,0
1874.3296,-3.68696471106433e-09,-5.03739904781729e-08,-5.40609551891833e-08,2.99583939668645e-07,-2.95784736404536e-08,-2.95784736404614e-08,9.3535429612404e-08,-2.80987693480214e-08,6.54366602642524e-08,7.76863219396159e-08,1.67739613356473e-07,7.76863219391354e-08,-4.82741938721363e-08,-7.79407130740756e-08,-1.26214906946351e-07,3.10746574062601e-07,-2.03013866407287e-07,1.07732707655284e-07,3.62747830538015e-09,-1.88457305729631e-07,3.62747830549066e-09,6.22969524153207e-08,1.31208353563752e-08,7.54177877717071e-08,7.32791818853113e-08,-4.59991252329289e-08,-4.59991252330055e-08,6.43135575652797e-08,-6.43135575653368e-08,-1.26576977492816e-07,-2.33146824584949e-07,-1.64515503289181e-07,-3.97662327873692e-07,1.39003462593198e-07,-3.88165983420972e-08,1.00186864251763e-07,8.17339976334189e-08,3.68919332893724e-08,3.68919332894827e-08,-8.68202065304997e-08,,-3.46248112338767e-08,-1.72403021465623e-07,2.1954102156673e-10,-1.7218348044411e-07,-1.0424025356006e-07,2.22580842090226e-08,2.22580842087761e-08,-4.89841947397094e-08,4.89841947396735e-08,8.91601299927572e-08,0,0,0,9.01119999999992,102,941.675,534.403431372549,1457.6568627451,947.016666666667,936.333333333333,547.177450980392,521.629411764706,1744.83333333333,1170.48039215686,0
1874.432,-3.30742576454088e-09,-4.78932525196081e-08,-5.12006782840897e-08,2.99381075224736e-07,-2.7850975757314e-08,-2.78509757573202e-08,9.93887355280822e-08,-2.54458252134602e-08,7.39429103144943e-08,1.0124412776898e-07,1.75060287431261e-07,1.01244127768505e-07,-5.25673173346256e-08,-7.52727495508409e-08,-1.27840066885606e-07,3.06323069422257e-07,-1.97276505348725e-07,1.09046564073506e-07,-1.68645064560327e-09,-1.94698860906273e-07,-1.68645064549217e-09,5.61793571037345e-08,1.24048888466703e-08,6.85842459504138e-08,6.25143890101385e-08,-4.92256188943971e-08,-4.92256188944757e-08,6.63124596993766e-08,-6.63124596994324e-08,-1.27964922843795e-07,-2.38980341208629e-07,-1.59678360142155e-07,-3.98658701350345e-07,1.5121605519647e-07,-4.08325096922921e-08,1.10383545504837e-07,7.22371653610031e-08,3.71049115114829e-08,3.71049115115931e-08,-8.25137569459968e-08,,-3.25076609466832e-08,-1.62175882456405e-07,5.98549758036065e-10,-1.61577332698422e-07,-1.04100530312768e-07,2.27434369057339e-08,2.27434369054842e-08,-5.02452208140243e-08,5.0245220813991e-08,8.74414689844401e-08,0,0,0,9.11359999999991,102,943.437745098039,532.553921568627,1453.36274509804,946.403921568627,940.471568627451,548.655882352941,516.451960784314,1743.95098039216,1162.77450980392,0
1874.5344,-3.51562085551978e-09,-4.57781868957666e-08,-4.92938077512208e-08,2.97061212575818e-07,-2.64578648049232e-08,-2.64578648049275e-08,1.05342555514684e-07,-2.28672711776832e-08,8.24752843368767e-08,1.25109858886732e-07,1.82331865103534e-07,1.25109858886268e-07,-5.61413335111216e-08,-7.26290809111851e-08,-1.28770414422446e-07,3.00742238504258e-07,-1.91456105717977e-07,1.09286132786258e-07,-5.92039600940204e-09,-2.00299336521193e-07,-5.92039600929157e-09,5.04765883137932e-08,1.12747139645408e-08,6.17513022783387e-08,5.16030281196882e-08,-5.25836982191088e-08,-5.25836982191896e-08,6.76737502250608e-08,-6.76737502251153e-08,-1.26411408657477e-07,-2.45464843976473e-07,-1.53955833147996e-07,-3.99420677124029e-07,1.6192227638099e-07,-4.33549371997748e-08,1.1856733918187e-07,6.2542437728433e-08,3.70403473388783e-08,3.7040347338988e-08,-7.80146596091508e-08,,-2.99039205196776e-08,-1.52495617330491e-07,1.41817760429199e-09,-1.5107743972625e-07,-1.03466992660954e-07,2.291994607255e-08,2.29199460722963e-08,-5.09429942531691e-08,5.0942994253141e-08,8.55646566166985e-08,0,0,0,9.21599999999989,103,945.17572815534,539.211650485437,1446.56310679612,947.46213592233,942.88932038835,555.590291262136,522.833009708738,1739.4854368932,1153.64077669903,0
1874.6368,-4.2797628115267e-09,-4.40813206131396e-08,-4.83610834245933e-08,2.9265952917735e-07,-2.53505615140478e-08,-2.53505615140496e-08,1.11283429144827e-07,-2.04215168227649e-08,9.08619123219446e-08,1.48503688603995e-07,1.8943159960571e-07,1.48503688603545e-07,-5.88749648537129e-08,-6.99812841612095e-08,-1.28856249015063e-07,2.93965962030306e-07,-1.85455132383036e-07,1.0851082964725e-07,-8.70582835082986e-09,-2.04919876514129e-07,-8.70582835072134e-09,4.56254686282e-08,9.81537950489339e-09,5.54408481330919e-08,4.0811771863387e-08,-5.58302458124702e-08,-5.58302458125536e-08,6.82641141130301e-08,-6.82641141130826e-08,-1.21778006822196e-07,-2.52535347372323e-07,-1.47679053084682e-07,-4.00214400456566e-07,1.71277121581238e-07,-4.62160970477558e-08,1.25061024534132e-07,5.26877264824992e-08,3.67139523271513e-08,3.671395232726e-08,-7.34800847617265e-08,,-2.68615101148263e-08,-1.4349997884196e-07,2.66144900505895e-09,-1.40838529836949e-07,-1.02399716552919e-07,2.28377836106294e-08,2.28377836103708e-08,-5.10107819583421e-08,5.10107819583219e-08,8.33638150848935e-08,0,0,0,9.31839999999988,102,947.441951389967,540.537307938654,1437.72069710009,945.519712140175,949.36419063976,556.03411208455,525.040503792758,1733.78911138924,1141.65228281093,0.245098039215686
1874.7392,-5.50889890981429e-09,-4.2828204038026e-08,-4.83371029477592e-08,2.8653260968512e-07,-2.44368058717687e-08,-2.44368058717677e-08,1.17095677058895e-07,-1.81456784359931e-08,9.89499986227922e-08,1.7055892708315e-07,1.96261123962552e-07,1.70558927082719e-07,-6.06684973728012e-08,-6.73125227916154e-08,-1.27981020164558e-07,2.85998652026952e-07,-1.7918535060528e-07,1.06813301421652e-07,-9.79248894900249e-09,-2.08235122594957e-07,-9.79248894889705e-09,4.19513016684698e-08,8.08988402582809e-09,5.00411856942883e-08,3.04835237205069e-08,-5.87047820293296e-08,-5.87047820294156e-08,6.79943807838566e-08,-6.79943807839072e-08,-1.1431731578754e-07,-2.59970766183431e-07,-1.41134655843603e-07,-4.01105422026596e-07,1.79492553354379e-07,-4.92554726115293e-08,1.30237080743493e-07,4.27551515108305e-08,3.61379178876486e-08,3.61379178877561e-08,-6.90502228764245e-08,,-2.34887209561692e-08,-1.35283700146012e-07,4.29030726683159e-09,-1.30993392879225e-07,-1.00967864953409e-07,2.25639069132097e-08,2.25639069129454e-08,-5.03940414115759e-08,5.03940414115662e-08,8.06938714877578e-08,0,0,0,9.42079999999987,103,945.726902507023,525.067423206381,1438.0532902504,941.382420987399,950.071384026646,536.379811333747,513.755035079016,1749.49039454658,1126.61618595422,0.16504854368932
1874.8416,-7.04848170875468e-09,-4.20093270893658e-08,-4.90578087980311e-08,2.79240033576163e-07,-2.35815295863059e-08,-2.35815295863017e-08,1.22662175092587e-07,-1.60503042560979e-08,1.06611870836389e-07,1.9036433195205e-07,2.02745522456539e-07,1.9036433195164e-07,-6.14371958983033e-08,-6.46207042181137e-08,-1.26057900116559e-07,2.76864440633156e-07,-1.72575420038861e-07,1.04289020594275e-07,-9.0701366824373e-09,-2.09922377987827e-07,-9.07013668233625e-09,3.96370875710612e-08,6.14034627871191e-09,4.57774338497538e-08,2.09599796810888e-08,-6.09599343616404e-08,-6.09599343617292e-08,6.68210385847297e-08,-6.68210385847788e-08,-1.04605204390512e-07,-2.67351073784083e-07,-1.34572677935558e-07,-4.01923751719208e-07,1.86769337540518e-07,-5.23426894083165e-08,1.34426648132838e-07,3.2898776752312e-08,3.53193805180481e-08,3.53193805181545e-08,-6.48529466058514e-08,,-1.99468917201528e-08,-1.27941693566276e-07,6.26025504021951e-09,-1.21681438526097e-07,-9.92331457991681e-08,2.21709109967874e-08,2.2170910996517e-08,-4.90371469417513e-08,4.90371469417538e-08,7.74548431889629e-08,0,0,0,9.52319999999986,102,939.136274509804,547.350490196078,1428.5931372549,935.864705882353,942.407843137255,562.307843137255,532.393137254902,1721.74509803922,1135.44117647059,0
